19086
19097
19115
19145
19144
19179
19216
19244
19229
19218
19219
19228
19245
19245
19270
19296
19325
19343
19331
19317
19305
19302
19304
19314
19331
19357
19356
19385
19413
19418
19413
19407
19407
19417
19432
19452
19451
19476
19506
19538
19537
19569
19588
19585
19579
19574
19576
19585
19597
19613
19629
19651
19650
19675
19697
19724
19726
19716
19703
19694
19688
19687
19687
19692
19703
19714
19726
19741
19744
19727
19705
19687
19675
19663
19658
19658
19660
19665
19673
19683
19690
19660
19625
19625
19595
19572
19557
19549
19544
19536
19531
19533
19535
19540
19519
19519
19465
19465
19425
19392
19371
19371
19363
19364
19367
19367
19378
19394
19378
19378
19337
19337
19315
19307
19307
19310
19321
19336
19335
19359
19381
19372
19343
19343
19324
19311
19307
19314
19324
19336
19335
19357
19382
19411
19416
19396
19383
19371
19363
19366
19376
19390
19408
19430
19429
19445
19431
19414
19413
19406
19406
19412
19425
19425
19444
19467
19491
19517
19529
19517
19504
19495
19493
19494
19504
19520
19519
19541
19562
19592
19617
19617
19616
19611
19610
19607
19609
19609
19621
19639
19656
19675
19697
19722
19721
19731
19725
19724
19719
19722
19727
19738
19752
19766
19783
19805
19804
19825
19846
19847
19844
19842
19841
19844
19851
19860
19871
19885
19900
19916
19915
19927
19919
19908
19907
19899
19895
19895
19897
19906
19905
19917
19926
19944
19956
19961
19946
19918
19906
19897
19896
19898
19897
19897
19903
19913
19924
19939
19941
19925
19910
19890
19889
19881
19879
19878
19881
19886
19885
19898
19910
19926
19933
19923
19911
19900
19891
19887
19892
19897
19904
19915
19927
19940
19957
19973
19973
19964
19955
19950
19946
19948
19954
19963
19973
19985
19997
19997
20013
20028
20025
20015
20001
19989
19980
19978
19977
19979
19982
19992
20002
20013
20023
20035
20034
20013
19988
19988
19967
19950
19939
19932
19927
19926
19930
19933
19938
19948
19937
19902
19870
19870
19842
19816
19796
19783
19782
19775
19770
19769
19727
19676
19675
19635
19598
19598
19581
19565
19554
19541
19482
19482
19421
19421
19385
19364
19355
19351
19351
19359
19373
19373
19318
19318
19264
19234
19233
19223
19221
19231
19243
19243
19266
19290
19320
19329
19302
19276
19247
19238
19237
19246
19262
19285
19308
19337
19336
19371
19406
19442
19441
19443
19436
19437
19444
19461
19482
19509
19536
19536
19569
19605
19641
19641
19673
19690
19705
19714
19726
19743
19742
19765
19784
19808
19833
19833
19857
19883
19909
19928
19937
19944
19943
19955
19964
19976
19992
20009
20026
20045
20044
20066
20089
20110
20119
20123
20124
20122
20123
20126
20131
20141
20148
20160
20159
20171
20183
20196
20202
20194
20181
20163
20149
20149
20139
20132
20122
20123
20125
20126
20130
20134
20128
20102
20072
20040
20039
20020
20003
19993
19981
19977
19974
19979
19968
19968
19919
19870
19869
19835
19809
19792
19778
19771
19767
19767
19772
19775
19774
19722
19721
19675
19641
19618
19606
19601
19598
19600
19610
19615
19621
19620
19619
19562
19561
19522
19493
19478
19471
19471
19468
19473
19477
19490
19506
19487
19449
19449
19418
19398
19384
19378
19376
19362
19359
19365
19349
19349
19331
19321
19319
19327
19345
19345
19372
19402
19429
19433
19444
19463
19462
19480
19501
19526
19550
19574
19567
19551
19536
19535
19533
19540
19551
19568
19567
19555
19554
19532
19522
19522
19530
19545
19544
19567
19566
19555
19544
19548
19559
19577
19603
19630
19645
19639
19632
19625
19632
19645
19644
19665
19692
19715
19714
19707
19700
19703
19710
19721
19736
19762
19761
19789
19814
19816
19808
19799
19797
19802
19812
19826
19845
19845
19867
19891
19914
19936
19934
19926
19917
19915
19915
19922
19932
19951
19950
19969
19989
20010
20026
20019
20011
20005
20003
20004
20009
20021
20034
20046
20061
20061
20081
20089
20079
20069
20057
20050
20045
20044
20050
20055
20063
20074
20087
20102
20116
20118
20103
20088
20072
20060
20053
20052
20055
20062
20069
20081
20092
20106
20120
20119
20103
20089
20074
20064
20055
20051
20052
20057
20062
20073
20086
20102
20110
20095
20079
20060
20042
20032
20022
20021
20019
20022
20030
20042
20050
20060
20034
20034
20002
19978
19960
19944
19936
19932
19931
19934
19939
19950
19961
19956
19919
19919
19881
19851
19825
19825
19813
19810
19807
19811
19817
19817
19820
19820
19781
19738
19737
19708
19686
19671
19663
19663
19667
19675
19683
19698
19703
19670
19632
19632
19606
19587
19572
19567
19566
19570
19578
19593
19609
19626
19624
19596
19564
19534
19516
19516
19515
19514
19520
19520
19534
19554
19576
19592
19579
19561
19536
19523
19515
19516
19522
19531
19547
19562
19581
19603
19627
19627
19623
19623
19603
19590
19582
19581
19587
19598
19613
19613
19633
19658
19682
19706
19725
19725
19714
19698
19691
19692
19692
19698
19709
19724
19723
19743
19762
19786
19805
19806
19794
19780
19767
19763
19759
19771
19781
19794
19808
19826
19825
19844
19864
19856
19841
19817
19816
19802
19791
19786
19789
19794
19802
19815
19814
19829
19848
19862
19852
19831
19806
19806
19787
19772
19764
19757
19752
19755
19759
19766
19778
19792
19803
19781
19751
19721
19690
19690
19671
19664
19663
19663
19667
19679
19688
19702
19701
19701
19668
19634
19603
19583
19582
19574
19571
19576
19582
19592
19591
19612
19627
19613
19579
19579
19551
19530
19516
19511
19511
19517
19527
19543
19558
19576
19596
19574
19545
19517
19493
19480
19470
19470
19473
19486
19499
19519
19537
19557
19546
19516
19483
19483
19462
19451
19446
19449
19471
19471
19493
19512
19532
19524
19493
19493
19461
19446
19432
19428
19431
19435
19448
19466
19482
19482
19504
19512
19484
19484
19448
19428
19414
19408
19409
19414
19426
19441
19458
19476
19475
19478
19477
19452
19427
19413
19403
19404
19411
19423
19438
19457
19480
19480
19506
19518
19497
19477
19476
19462
19453
19453
19456
19470
19469
19488
19508
19530
19556
19575
19562
19548
19526
19518
19510
19511
19519
19529
19543
19560
19581
19581
19606
19616
19597
19579
19578
19563
19552
19552
19558
19569
19568
19588
19606
19631
19658
19670
19651
19633
19609
19594
19582
19577
19577
19580
19590
19604
19618
19639
19658
19654
19633
19615
19595
19583
19572
19571
19574
19582
19595
19611
19629
19649
19666
19654
19600
19578
19560
19548
19547
19547
19550
19561
19572
19587
19605
19612
19589
19568
19545
19545
19532
19526
19528
19534
19547
19547
19546
19528
19520
19516
19520
19529
19541
19557
19577
19577
19593
19585
19574
19568
19569
19574
19578
19593
19608
19630
19652
19662
19658
19650
19651
19656
19666
19666
19686
19709
19779
19778
19775
19771
19773
19778
19777
19792
19812
19837
19865
19892
19891
19919
19925
19926
19920
19922
19926
19933
19945
19959
19976
19976
19997
20021
20044
20066
20071
20070
20063
20063
20066
20075
20084
20084
20099
20117
20136
20156
20164
20162
20156
20151
20152
20155
20163
20171
20185
20185
20201
20218
20234
20247
20241
20235
20223
20217
20211
20207
20206
20209
20214
20224
20234
20247
20258
20269
20262
20247
20226
20209
20194
20184
20179
20174
20177
20182
20188
20196
20206
20218
20216
20197
20174
20174
20153
20138
20128
20121
20118
20119
20123
20131
20140
20144
20127
20102
20074
20057
20056
20046
20041
20043
20049
20056
20055
20071
20078
20022
20021
20014
20007
20006
20011
20019
20018
20031
20047
20065
20080
20084
20067
20048
20027
20015
20014
20008
20007
20009
20014
20021
20020
20032
20043
20059
20065
20042
20020
20020
20004
19989
19980
19975
19975
19986
19991
20003
20013
20023
20003
19976
19943
19920
19901
19901
19894
19888
19886
19888
19892
19900
19899
19911
19916
19916
19879
19834
19833
19803
19779
19759
19746
19742
19740
19744
19747
19756
19769
19779
19750
19705
19704
19660
19625
19625
19605
19593
19585
19584
19585
19595
19606
19620
19594
19546
19545
19501
19467
19443
19442
19434
19429
19432
19440
19440
19453
19470
19470
19470
19415
19415
19415
19415
19439
19448
19457
19459
19464
19473
19483
19496
19510
19526
19527
19544
19565
19587
19610
19626
19630
19630
19623
19621
19618
19618
19623
19628
19637
19644
19655
19655
19670
19684
19694
19678
19660
19660
19637
19615
19603
19592
19584
19581
19583
19587
19592
19601
19610
19623
19615
19576
19577
19533
19498
19464
19465
19447
19431
19421
19418
19415
19423
19433
19446
19447
19405
19405
19361
19327
19297
19297
19285
19276
19274
19278
19297
19297
19313
19313
19314
19263
19263
19221
19186
19161
19147
19147
19148
19148
19158
19172
19188
19206
19212
19157
19157
19157
19139
19133
19131
19139
19152
19169
19169
19194
19219
19244
19220
19177
19177
19145
19121
19102
19107
19115
19128
19168
19194
19194
19224
19190
19218
19248
19278
19273
19249
19225
19208
19197
19194
19196
19210
19222
19243
19264
19291
19301
19278
19260
19247
19238
19233
19275
19293
19304
19271
19239
19204
19204
19186
19178
19181
19192
19206
19206
19226
19252
19281
19308
19296
19256
19213
19213
19186
19166
19159
19159
19168
19181
19200
19224
19223
19251
19281
19311
19302
19273
19237
19207
19206
19201
19202
19211
19210
19234
19260
19291
19322
19322
19357
19391
19385
19381
19379
19385
19396
19414
19414
19437
19463
19494
19524
19524
19558
19593
19593
19603
19611
19615
19623
19631
19648
19664
19683
19704
19704
19726
19752
19779
19805
19805
19833
19842
19842
19840
19838
19840
19845
19851
19862
19876
19894
19911
19929
19929
19949
19967
19991
20004
19994
19988
19972
19961
19952
19946
19946
19947
19948
19952
19959
19966
19975
19988
20001
20012
19994
19972
19944
19920
19920
19907
19905
19901
19903
19906
19915
19919
19932
19932
19943
19932
19932
19891
19848
19848
19814
19790
19772
19763
19753
19753
19753
19757
19763
19772
19784
19789
19789
19736
19686
19686
19652
19629
19628
19620
19618
19619
19626
19635
19634
19651
19652
19652
19591
19591
19538
19497
19496
19476
19468
19464
19464
19471
19482
19496
19511
19511
19510
19448
19447
19393
19392
19358
19340
19331
19329
19334
19343
19359
19360
19293
19292
19226
19225
19187
19160
19154
19151
19157
19169
19190
19213
19243
19242
19224
19223
19223
19157
19117
19116
19103
19100
19108
19122
19122
19148
19178
19210
19210
19209
19152
19151
19110
19085
19077
19078
19087
19102
19125
19155
19155
19191
19225
19198
19138
19137
19069
19052
19052
19066
19082
19108
19144
19143
19186
19228
19228
19227
19180
19138
19138
19137
19167
19198
19237
19236
19280
19328
19336
19335
19373
19372
19412
19401
19377
19359
19352
19351
19351
19369
19395
19422
19455
19454
19494
19534
19534
19555
19537
19524
19524
19520
19522
19521
19540
19561
19588
19619
19619
19654
19693
19727
19731
19714
19700
19690
19699
19711
19733
19732
19760
19787
19817
19816
19842
19836
19827
19814
19805
19802
19802
19809
19822
19836
19856
19878
19900
19923
19923
19918
19900
19899
19876
19872
19874
19880
19890
19904
19904
19923
19945
19906
19906
19884
19872
19867
19866
19871
19882
19892
19907
19906
19922
19937
19912
19911
19877
19876
19875
19879
19879
19892
19907
19924
19938
19904
19904
19869
19842
19816
19803
19794
19794
19797
19806
19818
19835
19853
19874
19868
19818
19777
19777
19753
19742
19737
19745
19757
19776
19795
19795
19797
19797
19753
19753
19721
19698
19687
19683
19684
19693
19707
19726
19748
19748
19773
19779
19735
19735
19701
19680
19679
19704
19688
19688
19649
19615
19594
19584
19584
19594
19605
19621
19642
19670
19669
19699
19731
19743
19715
19691
19690
19679
19675
19680
19691
19691
19709
19733
19758
19788
19792
19762
19718
19705
19698
19704
19712
19727
19746
19771
19795
19795
19825
19854
19840
19816
19787
19787
19774
19769
19772
19782
19781
19799
19817
19843
19870
19901
19900
19900
19879
19857
19844
19836
19835
19840
19850
19865
19883
19883
19906
19932
19944
19924
19907
19892
19884
19879
19882
19892
19904
19922
19942
19966
19991
19991
19995
19975
19974
19953
19942
19936
19938
19944
19958
19973
19972
19994
20017
20044
20069
20065
20048
20030
20015
20009
20008
20015
20027
20039
20054
20071
20070
20093
20118
20134
20121
20111
20103
20098
20111
20123
20138
20158
20157
20180
20199
20190
20177
20161
20147
20141
20139
20142
20149
20161
20173
20191
20210
20229
20253
20253
20252
20233
20207
20185
20167
20156
20149
20147
20147
20153
20164
20175
20189
20198
20175
20138
20137
20106
20081
20061
20050
20043
20039
20042
20046
20057
20067
20083
20077
20035
20034
19988
19956
19931
19930
19922
19919
19920
19928
19940
19939
19959
19980
19973
19938
19938
19905
19884
19868
19861
19860
19866
19876
19889
19908
19929
19928
19936
19935
19910
19882
19868
19857
19855
19860
19870
19882
19901
19921
19944
19943
19969
19977
19953
19932
19932
19919
19907
19904
19911
19919
19934
19933
19954
19976
20001
20019
19985
19969
19962
19956
19958
19966
19996
20014
20035
20034
20060
20080
20072
20056
20038
20025
20025
20021
20024
20023
20036
20053
20077
20100
20124
20123
20146
20138
20126
20109
20109
20100
20098
20100
20107
20106
20122
20139
20159
20178
20202
20220
20210
20188
20179
20174
20174
20179
20185
20195
20209
20224
20224
20244
20264
20270
20251
20231
20231
20212
20201
20193
20191
20194
20202
20213
20213
20229
20250
20269
20276
20253
20226
20225
20198
20176
20159
20147
20143
20139
20143
20150
20161
20174
20185
20116
20116
20076
20042
20041
20029
20023
20021
20057
20057
20056
19996
19995
19933
19884
19884
19854
19836
19824
19822
19825
19833
19846
19862
19878
19887
19829
19778
19777
19736
19703
19703
19692
19691
19700
19712
19711
19735
19759
19771
19718
19718
19668
19632
19631
19617
19610
19614
19623
19623
19643
19668
19694
19727
19726
19714
19713
19672
19671
19651
19643
19645
19655
19669
19668
19691
19718
19748
19777
19777
19776
19739
19701
19701
19679
19671
19667
19682
19695
19695
19720
19745
19772
19798
19762
19718
19717
19685
19662
19648
19649
19656
19666
19684
19708
19708
19738
19769
19798
19813
19766
19722
19721
19688
19661
19650
19646
19652
19660
19678
19699
19699
19726
19755
19783
19774
19730
19699
19698
19663
19671
19685
19704
19704
19732
19762
19795
19795
19796
19796
19795
19778
19773
19777
19787
19787
19806
19831
19859
19889
19888
19922
19919
19880
19879
19858
19846
19856
19871
19887
19910
19910
19935
19965
19955
19911
19910
19879
19878
19906
19936
19961
19925
19882
19881
19867
19861
19863
19872
19886
19907
19935
19961
19961
19993
20022
19993
19952
19951
19915
19893
19875
19868
19872
19879
19894
19915
19940
19939
19970
19998
19990
19947
19947
19917
19898
19882
19883
19887
19900
19915
19934
19933
19964
19993
20029
20039
19990
19954
19954
19921
19893
19905
19923
19941
19941
19972
19994
19953
19912
19911
19881
19860
19851
19850
19858
19871
19886
19904
19931
19930
19930
19910
19905
19907
19918
19929
19949
19976
19922
19921
19880
19852
19837
19831
19834
19843
19858
19877
19904
19890
19834
19833
19792
19772
19761
19763
19778
19795
19823
19822
19823
19822
19791
19767
19762
19766
19782
19807
19807
19841
19881
19925
19925
19906
19906
19892
19899
19909
19909
19934
19969
20008
20008
20052
20084
20083
20089
20100
20100
20120
20147
20180
20216
20215
20255
20295
20295
20312
20320
20324
20334
20352
20371
20370
20396
20421
20453
20484
20484
20518
20557
20567
20573
20572
20582
20597
20616
20636
20659
20680
20680
20707
20735
20742
20750
20751
20754
20757
20761
20766
20775
20785
20785
20799
20816
20833
20842
20831
20821
20806
20798
20790
20784
20784
20785
20788
20797
20804
20816
20827
20829
20805
20805
20788
20780
20775
20774
20772
20778
20784
20794
20775
20745
20719
20700
20699
20687
20683
20680
20682
20691
20690
20691
20661
20661
20636
20620
20605
20599
20599
20601
20607
20615
20624
20640
20653
20598
20605
20617
20633
20649
20667
20669
20650
20632
20616
20608
20600
20601
20601
20608
20618
20633
20647
20666
20665
20676
20658
20658
20636
20624
20617
20614
20611
20615
20614
20631
20621
20599
20598
20580
20566
20555
20552
20552
20551
20557
20566
20576
20589
20589
20588
20573
20572
20578
20577
20588
20603
20617
20634
20637
20608
20585
20584
20558
20538
20524
20517
20516
20519
20525
20534
20546
20560
20575
20564
20532
20506
20483
20482
20468
20459
20461
20462
20469
20477
20477
20490
20508
20519
20481
20480
20439
20407
20379
20378
20366
20359
20359
20365
20375
20374
20391
20409
20403
20402
20358
20308
20308
20282
20265
20257
20255
20260
20267
20286
20303
20302
20319
20318
20284
20252
20228
20209
20200
20202
20204
20213
20228
20246
20268
20292
20292
20296
20296
20272
20245
20233
20226
20227
20235
20247
20266
20284
20284
20336
20364
20375
20354
20336
20314
20300
20294
20294
20303
20316
20331
20348
20371
20391
20391
20415
20427
20409
20395
20378
20378
20371
20373
20377
20377
20388
20406
20424
20444
20465
20488
20487
20487
20469
20442
20420
20409
20399
20400
20404
20413
20423
20439
20456
20479
20478
20501
20499
20474
20473
20449
20430
20421
20415
20414
20418
20424
20434
20447
20463
20480
20479
20473
20472
20447
20418
20399
20382
20374
20371
20375
20379
20391
20405
20420
20439
20461
20469
20437
20410
20373
20372
20349
20332
20326
20324
20327
20337
20348
20362
20379
20378
20378
20344
20307
20277
20277
20261
20254
20253
20265
20277
20277
20290
20307
20289
20289
20239
20239
20203
20174
20159
20150
20145
20148
20156
20168
20182
20198
20169
20113
20112
20065
20064
20038
20025
20017
20016
20023
20034
20048
20047
20020
19996
19988
19990
19998
20012
20031
20054
20073
20036
19994
19993
19964
19950
19951
19963
19984
19983
20011
20044
20081
20080
20078
20077
20053
20036
20037
20041
20055
20054
20080
20111
20147
20146
20188
20227
20254
20254
20258
20259
20259
20273
20326
20356
20356
20390
20428
20427
20465
20481
20493
20498
20503
20515
20532
20531
20531
20530
20560
20590
20617
20622
20626
20623
20626
20632
20632
20644
20660
20675
20695
20714
20736
20735
20757
20758
20755
20752
20751
20760
20768
20779
20794
20807
20825
20840
20840
20836
20836
20822
20806
20794
20787
20783
20787
20787
20816
20826
20826
20825
20805
20742
20727
20721
20715
20737
20713
20712
20694
20681
20667
20665
20664
20663
20670
20680
20691
20704
20697
20674
20653
20633
20620
20612
20609
20614
20622
20631
20647
20661
20676
20672
20658
20641
20630
20622
20619
20618
20624
20630
20640
20654
20665
20658
20647
20634
20629
20625
20629
20632
20641
20654
20671
20688
20695
20693
20688
20686
20691
20694
20694
20709
20727
20742
20761
20784
20796
20802
20803
20802
20812
20822
20835
20847
20864
20879
20897
20914
20914
20921
20923
20923
20928
20931
20940
20945
20957
20968
20981
20995
21009
21026
21026
21026
21024
21023
21021
21019
21022
21022
21022
21029
21046
21054
21062
21074
21070
21062
21047
21028
21015
21014
21003
20994
20990
20986
20985
20987
20993
20994
21000
20961
20926
20925
20892
20860
20838
20817
20817
20804
20797
20794
20791
20794
20797
20770
20721
20720
20632
20631
20606
20584
20560
20553
20553
20504
20457
20456
20426
20409
20402
20396
20400
20406
20417
20429
20446
20460
20423
20374
20374
20331
20301
20280
20280
20277
20283
20282
20296
20316
20336
20359
20385
20394
20345
20296
20296
20260
20236
20213
20215
20223
20238
20256
20281
20308
20308
20307
20307
20279
20260
20252
20255
20261
20274
20291
20291
20302
20302
20247
20247
20205
20176
20156
20150
20152
20163
20177
20198
20219
20246
20223
20168
20167
20115
20082
20060
20059
20061
20060
20077
20094
20114
20121
20073
20072
20027
20000
19982
19976
19986
19997
20018
20041
20070
20080
20044
20011
19981
19970
19971
19980
20002
20029
20063
20062
20105
20149
20149
20149
20144
20143
20147
20146
20168
20196
20231
20230
20272
20316
20316
20362
20388
20399
20410
20421
20421
20440
20466
20495
20526
20525
20559
20593
20593
20617
20627
20643
20649
20663
20682
20701
20701
20725
20751
20780
20809
20808
20812
20815
20814
20818
20826
20833
20849
20866
20884
20900
20900
20923
20931
20926
20923
20917
20915
20912
20916
20923
20932
20943
20956
20972
20975
20958
20943
20919
20905
20891
20891
20887
20889
20892
20892
20900
20901
20900
20871
20839
20815
20792
20792
20785
20780
20778
20786
20793
20762
20719
20679
20678
20653
20636
20629
20626
20630
20638
20632
20586
20586
20546
20519
20493
20484
20480
20480
20486
20481
20480
20442
20411
20411
20395
20392
20397
20404
20403
20403
20350
20305
20304
20281
20262
20259
20261
20272
20282
20296
20260
20210
20209
20177
20156
20145
20148
20158
20171
20192
20186
20143
20142
20114
20100
20097
20103
20116
20115
20145
20174
20162
20127
20127
20110
20104
20106
20122
20121
20142
20169
20205
20204
20242
20238
20219
20198
20190
20193
20202
20220
20241
20266
20299
20298
20335
20340
20328
20318
20314
20316
20328
20345
20366
20393
20393
20427
20463
20479
20470
20460
20454
20453
20459
20470
20488
20487
20564
20556
20555
20556
20561
20575
20593
20592
20613
20640
20664
20666
20656
20647
20641
20637
20642
20649
20661
20675
20695
20694
20718
20741
20755
20736
20719
20695
20681
20680
20674
20676
20680
20679
20691
20708
20726
20746
20761
20740
20715
20689
20670
20669
20658
20654
20656
20661
20661
20676
20694
20710
20696
20665
20665
20643
20622
20607
20605
20604
20606
20615
20625
20647
20611
20579
20552
20551
20537
20529
20527
20530
20539
20550
20550
20566
20587
20594
20556
20555
20516
20488
20470
20460
20460
20461
20472
20482
20499
20515
20538
20559
20545
20485
20461
20442
20442
20436
20440
20442
20442
20457
20473
20492
20500
20467
20434
20433
20411
20393
20383
20382
20384
20391
20403
20420
20437
20457
20457
20456
20414
20368
20368
20339
20320
20311
20311
20316
20324
20338
20356
20355
20374
20373
20330
20286
20246
20245
20222
20208
20205
20204
20213
20245
20264
20258
20210
20169
20169
20142
20122
20121
20134
20153
20178
20177
20203
20200
20153
20152
20144
20148
20148
20164
20188
20215
20246
20245
20271
20244
20244
20210
20187
20174
20171
20180
20198
20219
20249
20248
20280
20296
20280
20263
20251
20247
20252
20264
20285
20310
20339
20338
20373
20401
20387
20371
20370
20374
20389
20411
20435
20434
20463
20496
20531
20530
20560
20555
20549
20540
20539
20540
20552
20569
20569
20597
20635
20634
20638
20638
20637
20636
20638
20647
20661
20674
20696
20716
20739
20738
20764
20770
20768
20764
20764
20768
20773
20784
20799
20814
20835
20834
20858
20881
20903
20913
20909
20903
20897
20892
20895
20897
20906
20918
20944
20943
20960
20978
20991
20984
20977
20965
20958
20954
20956
20959
20965
20969
20978
20988
21001
21012
21000
20981
20969
20960
20957
20956
20962
20966
20973
20987
21000
21015
21031
21030
21030
21019
21004
20991
20984
20979
20979
20980
20984
20992
21002
21014
21029
21028
21029
21022
21022
21014
21011
21004
21006
21007
21012
21018
21018
21030
21043
21050
21040
21025
21025
21010
20999
20992
20988
20985
20990
20995
21003
21014
21014
21028
21027
21026
21008
20982
20964
20949
20938
20932
20929
20929
20933
20941
20947
20958
20964
20943
20921
20898
20898
20880
20866
20863
20863
20865
20869
20876
20887
20895
20903
20880
20857
20827
20807
20789
20777
20776
20771
20772
20779
20778
20789
20800
20822
20775
20775
20752
20734
20721
20715
20710
20714
20718
20727
20733
20745
20756
20745
20718
20690
20661
20661
20641
20630
20624
20622
20624
20631
20639
20650
20658
20636
20600
20562
20561
20533
20512
20499
20489
20488
20510
20522
20536
20548
20519
20483
20445
20445
20419
20403
20393
20391
20390
20399
20409
20424
20441
20463
20462
20434
20408
20379
20363
20348
20343
20344
20350
20362
20376
20393
20414
20437
20431
20407
20384
20360
20344
20337
20337
20345
20355
20369
20385
20406
20427
20456
20455
20442
20441
20416
20394
20383
20374
20374
20379
20388
20404
20424
20444
20444
20469
20450
20449
20426
20411
20401
20397
20402
20412
20423
20438
20438
20459
20475
20459
20437
20436
20420
20410
20408
20409
20415
20423
20442
20441
20461
20452
20430
20429
20411
20402
20398
20400
20411
20424
20424
20443
20464
20486
20473
20453
20432
20431
20424
20422
20429
20428
20441
20453
20476
20500
20524
20519
20502
20486
20475
20468
20468
20471
20479
20492
20507
20507
20486
20468
20455
20446
20443
20442
20445
20450
20465
20454
20427
20426
20407
20395
20391
20392
20400
20413
20413
20412
20412
20385
20361
20345
20341
20344
20353
20366
20384
20406
20428
20427
20455
20472
20468
20461
20454
20451
20455
20462
20478
20496
20516
20515
20542
20570
20598
20597
20614
20621
20630
20636
20650
20662
20681
20699
20699
20718
20746
20768
20793
20792
20801
20811
20817
20827
20839
20850
20864
20880
20895
20894
20913
20928
20946
20959
20964
20969
20971
20976
20982
20989
21001
21000
21010
21020
21031
21045
21057
21067
21071
21062
21051
21038
21025
21013
21002
20995
20990
20982
20983
20982
20982
20981
20985
20980
20980
20945
20902
20901
20866
20843
20823
20806
20797
20790
20788
20788
20792
20797
20805
20784
20784
20744
20700
20699
20668
20646
20632
20618
20610
20611
20616
20618
20628
20636
20610
20609
20567
20526
20526
20498
20482
20472
20464
20465
20469
20476
20491
20507
20524
20503
20450
20449
20403
20365
20336
20335
20332
20334
20342
20341
20357
20375
20400
20400
20347
20346
20287
20286
20248
20221
20207
20200
20200
20207
20217
20230
20248
20268
20288
20261
20205
20204
20150
20110
20110
20090
20081
20079
20085
20096
20110
20109
20131
20147
20106
20105
20057
20056
20024
20001
19992
19988
19990
19998
20013
20031
20052
20051
20071
20070
20009
19948
19948
19914
19891
19879
19878
19882
19894
19914
19936
19964
19951
19900
19900
19864
19842
19834
19838
19847
19868
19893
19893
19924
19961
19998
19998
19997
19959
19923
19897
19896
19891
19897
19897
19916
19943
19969
20001
20000
20037
20057
20026
20000
20000
19985
19979
19983
19997
19996
20013
20041
20072
20071
20107
20146
20170
20144
20119
20088
20088
20087
20087
20103
20125
20147
20178
20177
20213
20244
20237
20210
20184
20183
20167
20178
20178
20177
20147
20121
20095
20081
20074
20075
20083
20099
20119
20144
20163
20140
20115
20089
20075
20069
20074
20087
20105
20130
20157
20156
20156
20146
20146
20152
20163
20179
20179
20210
20238
20242
20235
20227
20228
20237
20253
20272
20272
20302
20334
20367
20367
20370
20369
20363
20367
20375
20393
20414
20439
20466
20466
20499
20533
20570
20570
20578
20585
20588
20598
20627
20647
20665
20665
20691
20719
20744
20744
20755
20781
20794
20812
20831
20831
20850
20872
20878
20882
20879
20884
20887
20895
20902
20912
20922
20937
20936
20949
20962
20962
20949
20939
20935
20928
20927
20927
20928
20935
20940
20950
20957
20952
20935
20935
20920
20908
20898
20892
20888
20888
20889
20894
20900
20905
20904
20887
20858
20829
20807
20807
20793
20783
20775
20774
20775
20777
20781
20790
20785
20760
20733
20702
20701
20684
20672
20663
20659
20659
20662
20666
20669
20641
20614
20593
20592
20580
20571
20570
20570
20576
20585
20585
20598
20592
20591
20563
20530
20509
20494
20485
20482
20480
20486
20495
20507
20521
20538
20537
20516
20492
20491
20475
20463
20460
20458
20465
20476
20489
20488
20506
20521
20514
20513
20493
20486
20486
20469
20463
20458
20461
20469
20480
20548
20530
20518
20511
20503
20504
20507
20517
20529
20546
20545
20563
20570
20552
20551
20528
20512
20501
20491
20488
20489
20495
20505
20514
20529
20539
20522
20499
20473
20443
20428
20424
20422
20428
20433
20444
20453
20467
20473
20449
20418
20418
20390
20370
20359
20352
20348
20349
20358
20369
20380
20398
20410
20401
20375
20349
20324
20324
20312
20310
20311
20317
20328
20328
20344
20362
20375
20368
20350
20329
20316
20316
20314
20318
20317
20339
20354
20372
20390
20407
20383
20358
20333
20316
20309
20309
20306
20306
20315
20327
20340
20356
20374
20377
20359
20335
20308
20308
20294
20285
20284
20288
20294
20300
20299
20315
20332
20334
20313
20313
20294
20284
20275
20274
20276
20286
20297
20297
20312
20331
20353
20365
20352
20337
20316
20303
20302
20298
20297
20305
20316
20335
20355
20377
20397
20421
20420
20420
20407
20398
20395
20397
20402
20412
20411
20428
20447
20468
20490
20509
20507
20500
20485
20476
20472
20478
20487
20498
20516
20516
20535
20555
20578
20594
20586
20580
20569
20562
20556
20556
20561
20571
20582
20593
20610
20628
20627
20648
20655
20648
20626
20621
20614
20612
20610
20613
20621
20633
20644
20658
20681
20667
20650
20631
20617
20605
20604
20600
20597
20603
20602
20609
20621
20633
20624
20606
20605
20585
20567
20556
20551
20551
20552
20558
20566
20577
20588
20593
20566
20542
20514
20495
20494
20481
20474
20475
20476
20485
20494
20494
20505
20511
20487
20487
20458
20435
20420
20412
20409
20410
20415
20423
20433
20447
20462
20462
20444
20428
20413
20403
20396
20396
20398
20404
20411
20422
20435
20450
20460
20443
20422
20399
20380
20367
20360
20360
20359
20359
20368
20377
20392
20408
20399
20379
20354
20354
20341
20331
20327
20327
20332
20339
20350
20365
20364
20364
20342
20323
20314
20307
20308
20323
20337
20351
20367
20367
20359
20359
20336
20320
20306
20301
20301
20309
20319
20332
20348
20348
20366
20363
20348
20348
20333
20329
20327
20332
20341
20353
20352
20372
20392
20411
20409
20403
20394
20390
20390
20393
20402
20417
20431
20450
20449
20472
20496
20503
20498
20494
20491
20493
20497
20505
20517
20534
20548
20548
20568
20592
20610
20615
20612
20609
20608
20612
20616
20624
20632
20647
20661
20661
20677
20695
20703
20698
20695
20692
20691
20694
20699
20705
20715
20728
20740
20754
20769
20769
20774
20767
20755
20755
20743
20738
20734
20732
20735
20740
20747
20755
20754
20765
20774
20760
20759
20734
20712
20696
20679
20671
20662
20660
20657
20660
20664
20670
20673
20649
20648
20619
20593
20550
20536
20536
20530
20529
20532
20537
20536
20536
20490
20447
20446
20414
20360
20344
20337
20332
20331
20331
20335
20347
20357
20337
20336
20286
20285
20248
20217
20195
20179
20173
20166
20171
20177
20188
20199
20214
20180
20180
20130
20089
20088
20060
20044
20036
20030
20033
20053
20071
20090
20094
20037
20037
19991
19991
19966
19954
19949
19950
19958
19970
19985
19985
20007
20027
19986
19986
19925
19925
19884
19855
19839
19832
19832
19841
19855
19874
19899
19925
19950
19923
19861
19861
19810
19776
19752
19752
19751
19778
19807
19806
19745
19701
19700
19678
19674
19677
19693
19714
19741
19741
19774
19811
19846
19826
19768
19768
19722
19699
19682
19686
19694
19709
19733
19761
19760
19796
19835
19835
19840
19840
19741
19741
19752
19771
19795
19825
19857
19857
19895
19922
19893
19868
19845
19836
19829
19836
19875
19903
19934
19934
19970
20009
20008
20031
20008
20008
19985
19975
19972
19994
19993
20020
20049
20079
20113
20113
20152
20176
20155
20141
20121
20112
20108
20114
20129
20144
20161
20185
20184
20214
20241
20255
20236
20220
20198
20190
20186
20191
20202
20216
20237
20262
20288
20288
20316
20321
20296
20273
20272
20261
20251
20253
20260
20273
20272
20289
20312
20341
20368
20366
20347
20329
20313
20303
20300
20314
20326
20344
20364
20364
20380
20370
20359
20359
20353
20352
20359
20359
20373
20394
20417
20445
20476
20476
20500
20501
20497
20487
20488
20492
20503
20517
20535
20555
20554
20581
20607
20637
20658
20664
20665
20666
20665
20675
20683
20698
20713
20734
20754
20774
20773
20799
20810
20811
20811
20809
20810
20813
20818
20830
20843
20855
20871
20871
20889
20909
20926
20933
20929
20920
20910
20904
20903
20902
20904
20905
20911
20921
20932
20943
20955
20970
20968
20957
20942
20929
20916
20906
20899
20898
20897
20897
20901
20908
20915
20926
20927
20911
20892
20866
20865
20847
20829
20816
20808
20801
20802
20804
20808
20813
20821
20804
20770
20735
20734
20705
20676
20655
20654
20641
20633
20630
20629
20635
20641
20649
20648
20648
20609
20566
20565
20532
20505
20485
20469
20459
20458
20459
20458
20464
20471
20484
20464
20464
20423
20385
20384
20360
20347
20336
20334
20337
20347
20362
20378
20378
20400
20411
20376
20376
20334
20301
20279
20279
20273
20274
20282
20282
20298
20317
20338
20359
20382
20398
20366
20334
20297
20297
20276
20264
20258
20259
20265
20277
20291
20291
20312
20334
20353
20326
20293
20293
20270
20252
20240
20239
20239
20245
20258
20274
20292
20292
20316
20341
20338
20297
20296
20256
20221
20194
20193
20181
20178
20178
20184
20197
20196
20213
20233
20250
20212
20212
20159
20116
20115
20103
20095
20094
20101
20114
20130
20149
20148
20174
20163
20163
20122
20081
20052
20052
20040
20037
20040
20051
20063
20063
20086
20110
20101
20064
20063
20034
20015
20004
20003
20011
20023
20039
20062
20062
20089
20120
20128
20096
20066
20066
20047
20039
20040
20049
20061
20061
20084
20116
20144
20174
20173
20181
20157
20157
20129
20117
20108
20109
20118
20133
20150
20150
20176
20210
20242
20242
20254
20240
20223
20223
20217
20220
20228
20228
20250
20273
20297
20325
20324
20357
20360
20350
20338
20331
20330
20335
20345
20362
20380
20403
20402
20433
20468
20493
20486
20476
20458
20450
20446
20453
20463
20478
20477
20499
20517
20541
20566
20591
20589
20579
20559
20544
20534
20526
20524
20530
20540
20554
20570
20591
20590
20611
20628
20622
20613
20598
20589
20586
20584
20592
20599
20612
20627
20643
20663
20684
20683
20700
20687
20671
20670
20655
20643
20635
20632
20635
20638
20650
20659
20672
20671
20688
20699
20682
20681
20656
20637
20622
20612
20608
20606
20610
20617
20626
20636
20649
20652
20632
20615
20598
20584
20576
20573
20576
20582
20590
20603
20619
20633
20635
20620
20600
20579
20566
20558
20556
20559
20567
20577
20591
20607
20627
20644
20644
20637
20626
20618
20621
20623
20643
20659
20659
20681
20701
20725
20742
20750
20756
20761
20761
20770
20784
20799
20817
20832
20853
20872
20872
20883
20889
20890
20895
20903
20913
20925
20939
20956
20971
20970
20987
21001
21010
21013
21012
21014
21017
21024
21032
21043
21054
21067
21081
21080
21097
21110
21119
21120
21118
21115
21117
21117
21123
21127
21132
21141
21148
21159
21171
21178
21181
21178
21172
21165
21165
21163
21163
21165
21171
21178
21178
21184
21193
21203
21202
21198
21190
21180
21176
21170
21170
21169
21174
21177
21184
21188
21197
21198
21186
21185
21171
21156
21144
21131
21125
21119
21113
21110
21065
21064
21023
20984
20984
20950
20919
20894
20894
20876
20864
20854
20844
20790
20790
20713
20713
20712
20678
20650
20631
20616
20616
20613
20614
20616
20593
20531
20531
20465
20465
20425
20399
20384
20375
20372
20378
20389
20405
20422
20438
20405
20363
20362
20330
20306
20289
20285
20288
20296
20312
20329
20352
20377
20377
20399
20374
20373
20337
20310
20296
20285
20285
20302
20318
20340
20363
20362
20391
20420
20426
20389
20356
20355
20333
20316
20307
20303
20307
20316
20331
20349
20369
20368
20393
20393
20393
20361
20327
20302
20283
20275
20274
20276
20285
20298
20315
20335
20385
20337
20294
20293
20259
20229
20212
20201
20197
20199
20208
20220
20240
20257
20282
20303
20239
20188
20188
20120
20107
20106
20106
20111
20111
20126
20145
20167
20193
20215
20191
20151
20112
20111
20088
20074
20073
20078
20089
20126
20126
20150
20181
20211
20211
20210
20174
20133
20102
20101
20091
20091
20094
20105
20105
20129
20129
20162
20160
20126
20126
20092
20073
20061
20056
20057
20067
20082
20104
20127
20127
20156
20187
20211
20191
20156
20156
20137
20126
20123
20127
20136
20153
20152
20175
20201
20229
20258
20258
20249
20249
20211
20171
20149
20149
20154
20154
20172
20193
20217
20245
20244
20267
20244
20244
20210
20181
20159
20152
20148
20152
20160
20176
20197
20220
20247
20247
20275
20280
20239
20239
20194
20167
20166
20157
20155
20155
20172
20196
20218
20244
20276
20276
20285
20285
20257
20237
20236
20238
20237
20248
20262
20287
20311
20339
20338
20367
20352
20352
20323
20302
20289
20284
20288
20297
20313
20331
20330
20354
20385
20414
20445
20445
20444
20414
20377
20350
20333
20333
20334
20334
20349
20366
20388
20414
20442
20442
20472
20479
20448
20448
20414
20390
20370
20363
20364
20371
20378
20395
20438
20438
20447
20447
20411
20383
20366
20354
20347
20351
20358
20371
20409
20433
20432
20460
20482
20459
20429
20429
20403
20386
20383
20396
20412
20435
20434
20499
20534
20534
20533
20512
20504
20502
20507
20520
20536
20536
20560
20593
20623
20654
20653
20689
20712
20707
20700
20690
20684
20686
20692
20705
20719
20737
20736
20762
20786
20814
20813
20835
20833
20831
20822
20824
20830
20839
20849
20870
20890
20909
20908
20935
20962
20988
21000
21000
20995
20987
20985
20985
20991
20999
21010
21024
21023
21043
21064
21087
21110
21135
21134
21130
21129
21119
21110
21107
21109
21112
21119
21130
21129
21144
21157
21173
21190
21191
21181
21175
21165
21159
21155
21156
21159
21165
21173
21183
21197
21211
21225
21225
21224
21211
21193
21176
21165
21155
21149
21149
21148
21152
21154
21164
21174
21185
21196
21203
21181
21158
21127
21100
21099
21079
21066
21054
21048
21044
21045
21048
21063
21071
21044
21009
21008
20972
20938
20912
20890
20890
20875
20871
20873
20878
20884
20894
20896
20855
20805
20805
20758
20720
20719
20697
20682
20675
20671
20676
20682
20693
20704
20718
20713
20662
20610
20610
20566
20532
20531
20516
20507
20503
20508
20514
20525
20541
20540
20543
20542
20500
20460
20460
20433
20419
20416
20420
20429
20441
20440
20464
20489
20474
20433
20433
20397
20373
20358
20356
20358
20369
20381
20402
20425
20452
20451
20481
20508
20483
20447
20447
20411
20389
20375
20373
20377
20387
20399
20419
20438
20464
20463
20491
20477
20442
20441
20414
20395
20383
20379
20382
20403
20421
20443
20443
20470
20477
20476
20440
20400
20372
20353
20353
20352
20352
20362
20382
20402
20426
20450
20450
20478
20464
20463
20425
20385
20360
20359
20353
20353
20364
20363
20377
20396
20419
20445
20473
20469
20434
20404
20371
20353
20353
20351
20351
20362
20377
20398
20425
20452
20452
20480
20477
20450
20450
20430
20418
20414
20419
20429
20446
20445
20475
20502
20533
20532
20569
20601
20596
20579
20559
20542
20536
20537
20542
20553
20568
20590
20615
20639
20639
20672
20693
20679
20668
20652
20643
20639
20642
20647
20656
20670
20686
20709
20731
20730
20751
20737
20737
20709
20686
20669
20659
20651
20656
20661
20673
20689
20709
20730
20730
20739
20716
20715
20685
20671
20656
20648
20649
20665
20680
20697
20720
20719
20725
20724
20716
20716
20718
20717
20734
20752
20774
20799
20830
20829
20854
20856
20853
20844
20843
20844
20853
20864
20880
20897
20919
20918
20944
20973
20998
21006
21009
21008
21006
21009
21016
21027
21027
21042
21059
21079
21102
21123
21139
21138
21142
21145
21151
21160
21174
21188
21204
21223
21243
21242
21262
21277
21279
21281
21283
21284
21288
21296
21306
21318
21332
21348
21348
21364
21380
21396
21406
21409
21407
21404
21407
21410
21412
21417
21423
21430
21440
21451
21451
21462
21472
21467
21462
21458
21457
21451
21450
21451
21454
21455
21460
21465
21472
21487
21473
21460
21460
21442
21423
21404
21393
21379
21371
21366
21365
21361
21361
21364
21364
21339
21339
21298
21262
21232
21232
21208
21190
21176
21167
21160
21153
21154
21156
21135
21135
21087
21041
21040
21006
20979
20958
20957
20945
20939
20936
20938
20943
20948
20917
20864
20864
20809
20769
20768
20746
20729
20723
20719
20722
20728
20737
20749
20765
20740
20696
20695
20659
20636
20617
20609
20607
20613
20619
20632
20647
20663
20684
20689
20651
20615
20575
20574
20552
20542
20541
20547
20558
20573
20573
20593
20619
20643
20668
20650
20618
20582
20582
20563
20551
20545
20548
20553
20567
20582
20582
20603
20628
20646
20627
20598
20568
20567
20552
20543
20544
20551
20560
20574
20574
20591
20615
20642
20606
20574
20574
20551
20535
20528
20532
20537
20549
20563
20582
20581
20606
20630
20651
20634
20599
20561
20561
20538
20521
20512
20511
20515
20524
20535
20549
20567
20588
20587
20587
20550
20516
20486
20486
20470
20466
20468
20475
20474
20490
20510
20530
20551
20554
20506
20506
20456
20419
20392
20392
20386
20387
20391
20391
20409
20430
20454
20482
20503
20467
20417
20417
20377
20348
20327
20318
20319
20325
20336
20352
20372
20395
20418
20416
20366
20330
20329
20304
20285
20283
20286
20299
20312
20312
20335
20362
20389
20415
20381
20330
20329
20290
20262
20243
20236
20238
20252
20269
20290
20342
20341
20372
20361
20361
20318
20276
20253
20237
20236
20236
20248
20265
20286
20313
20343
20343
20346
20346
20309
20268
20246
20246
20245
20245
20260
20281
20306
20336
20335
20373
20408
20402
20360
20360
20322
20304
20292
20294
20302
20317
20338
20338
20366
20401
20438
20454
20422
20400
20376
20364
20356
20359
20371
20388
20412
20437
20436
20469
20494
20468
20439
20439
20417
20405
20408
20418
20433
20433
20455
20486
20519
20519
20555
20567
20542
20542
20509
20496
20489
20493
20504
20525
20524
20551
20581
20615
20614
20643
20633
20619
20618
20614
20613
20613
20645
20670
20694
20725
20724
20762
20784
20769
20756
20737
20732
20730
20738
20755
20774
20798
20826
20826
20856
20886
20919
20919
20918
20896
20886
20882
20882
20892
20905
20920
20940
20940
20961
20985
20997
20978
20957
20935
20922
20922
20918
20922
20921
20931
20943
20961
20981
21002
21020
21000
20976
20943
20921
20921
20910
20907
20908
20917
20916
20933
20967
20988
20993
20963
20935
20935
20911
20891
20880
20876
20876
20878
20890
20905
20918
20934
20932
20906
20882
20858
20844
20834
20831
20834
20841
20857
20874
20893
20915
20915
20934
20917
20916
20892
20874
20863
20859
20865
20874
20885
20902
20902
20922
20947
20972
20979
20966
20955
20945
20942
20940
20945
20954
20968
20987
21009
21008
21032
21052
21048
21039
21028
21018
21023
21029
21042
21056
21074
21093
21114
21113
21134
21132
21123
21110
21100
21097
21094
21097
21105
21114
21129
21142
21158
21173
21181
21166
21153
21136
21127
21122
21121
21120
21126
21134
21144
21155
21169
21167
21145
21118
21091
21090
21075
21061
21058
21058
21065
21070
21081
21080
21094
21087
21087
21061
21044
21031
21029
21030
21034
21044
21060
21077
21077
21100
21110
21106
21104
21106
21107
21111
21121
21134
21148
21165
21182
21181
21190
21189
21186
21188
21191
21199
21208
21221
21238
21255
21272
21291
21291
21292
21290
21284
21284
21284
21290
21295
21305
21315
21333
21344
21360
21373
21370
21364
21358
21351
21347
21346
21349
21353
21359
21369
21380
21391
21387
21373
21356
21338
21322
21303
21297
21297
21298
21303
21310
21319
21321
21296
21271
21270
21250
21229
21215
21209
21208
21205
21210
21204
21209
21203
21208
