18079
18085
18084
18108
18132
18161
18192
18192
18212
18182
18181
18154
18138
18136
18137
18153
18172
18193
18192
18212
18234
18251
18213
18172
18171
18148
18130
18121
18123
18134
18145
18168
18190
18190
18205
18205
18170
18140
18125
18120
18126
18138
18150
18169
18190
18190
18212
18222
18221
18177
18138
18114
18095
18095
18094
18104
18118
18135
18153
18172
18170
18115
18114
18072
18044
18019
18018
18017
18016
18029
18040
18059
18039
18039
17988
17942
17941
17920
17911
17914
17919
17932
17946
17946
17968
17962
17961
17909
17908
17878
17859
17857
17863
17876
17895
17920
17919
17942
17968
17951
17903
17903
17872
17856
17851
17855
17862
17878
17898
17917
17916
17941
17909
17909
17878
17864
17854
17852
17860
17876
17893
17915
17914
17938
17914
17914
17877
17856
17848
17845
17856
17869
17885
17910
17936
17936
17964
17978
17940
17940
17897
17875
17860
17857
17861
17873
17887
17909
17930
17930
17958
17984
17961
17919
17918
17889
17873
17867
17873
17885
17902
17926
17950
17950
17978
18010
18037
17989
17959
17945
17941
17945
17956
17974
17995
18021
18020
18053
18086
18120
18138
18122
18104
18087
18083
18085
18094
18107
18126
18126
18148
18173
18198
18228
18227
18242
18225
18225
18207
18203
18201
18208
18220
18220
18239
18259
18282
18308
18333
18333
18348
18332
18314
18314
18305
18299
18299
18307
18316
18316
18331
18350
18371
18394
18418
18430
18408
18387
18362
18344
18330
18325
18323
18328
18335
18348
18359
18372
18387
18404
18415
18388
18350
18309
18308
18281
18260
18251
18244
18242
18247
18253
18262
18274
18290
18292
18243
18243
18190
18149
18114
18114
18098
18090
18085
18087
18091
18097
18108
18072
18008
18008
17959
17959
17933
17921
17914
17912
17915
17924
17937
17951
17962
17919
17861
17861
17819
17782
17781
17766
17761
17760
17764
17773
17786
17786
17785
17724
17723
17684
17659
17647
17646
17656
17670
17689
17716
17716
17747
17776
17748
17707
17706
17684
17670
17671
17677
17691
17709
17709
17736
17767
17799
17799
17798
17758
17722
17701
17691
17687
17695
17707
17719
17738
17758
17782
17781
17797
17796
17764
17731
17718
17709
17711
17719
17733
17754
17782
17781
17811
17847
17876
17845
17807
17771
17771
17754
17748
17756
17764
17777
17777
17804
17838
17869
17869
17868
17834
17804
17786
17777
17779
17785
17793
17805
17822
17844
17868
17867
17890
17861
17861
17834
17816
17805
17804
17829
17845
17867
17867
17895
17926
17945
17916
17885
17854
17853
17844
17845
17855
17854
17869
17892
17918
17944
17944
17942
17942
17918
17900
17893
17892
17900
17913
17929
17949
17948
17947
17946
17918
17894
17880
17877
17883
17893
17905
17920
17930
17888
17888
17845
17820
17802
17798
17804
17815
17827
17845
17868
17868
17867
17812
17811
17766
17741
17727
17726
17729
17741
17760
17778
17802
17801
17822
17793
17793
17748
17726
17716
17716
17727
17748
17772
17798
17797
17831
17867
17881
17850
17826
17807
17804
17807
17821
17838
17864
17887
17887
17917
17954
17980
17961
17941
17917
17909
17910
17916
17959
17987
17987
18021
18054
18090
18090
18096
18081
18080
18068
18067
18070
18079
18079
18098
18125
18151
18181
18180
18212
18220
18215
18208
18207
18211
18219
18234
18253
18277
18277
18305
18336
18367
18367
18379
18374
18372
18371
18374
18383
18399
18417
18435
18456
18455
18482
18509
18536
18559
18559
18555
18552
18550
18555
18562
18562
18575
18597
18617
18637
18661
18672
18662
18651
18640
18636
18634
18639
18649
18661
18660
18678
18694
18695
18675
18675
18652
18640
18631
18631
18632
18635
18644
18657
18667
18667
18665
18665
18625
18586
18562
18562
18551
18544
18543
18547
18553
18563
18574
18574
18563
18563
18525
18496
18476
18465
18464
18468
18476
18487
18502
18521
18539
18559
18579
18574
18553
18531
18518
18511
18508
18512
18522
18538
18555
18575
18574
18600
18620
18641
18634
18621
18603
18594
18587
18588
18594
18607
18621
18637
18658
18658
18672
18661
18660
18645
18641
18636
18638
18645
18659
18659
18673
18692
18708
18732
18744
18729
18712
18691
18678
18670
18668
18672
18678
18690
18704
18722
18740
18763
18762
18765
18764
18747
18728
18720
18714
18714
18721
18732
18743
18759
18758
18776
18797
18817
18822
18810
18797
18788
18781
18781
18785
18795
18810
18823
18841
18860
18859
18883
18903
18909
18900
18890
18881
18876
18875
18881
18886
18898
18912
18929
18947
18947
18964
18977
18968
18961
18946
18945
18946
18951
18957
18966
18977
18990
19002
19020
19031
19023
19007
18991
18973
18966
18960
18959
18961
18967
18972
18984
18994
19011
19028
19042
19034
19021
19002
18985
18975
18966
18960
18956
18958
18962
18965
18974
18986
19000
19010
18994
18979
18962
18950
18941
18937
18936
18935
18942
18949
18960
18972
18986
19002
18998
18984
18971
18958
18952
18949
18952
18953
18961
18972
18981
18996
19010
19026
19029
19016
19003
18990
18986
18981
18983
18985
18992
19006
19018
19030
19030
19048
19061
19054
19042
19026
19016
19015
19011
19011
19013
19012
19018
19031
19044
19055
19070
19074
19064
19054
19038
19035
19039
19043
19050
19061
19076
19089
19106
19123
19123
19123
19118
19114
19114
19111
19113
19112
19120
19128
19140
19151
19165
19182
19195
19192
19184
19176
19173
19170
19171
19176
19181
19189
19199
19212
19223
19222
19220
19219
19205
19188
19176
19167
19160
19156
19156
19157
19164
19167
19176
19182
19163
19134
19102
19101
19076
19055
19039
19027
19021
19016
19019
19022
19027
19015
19015
18976
18935
18901
18901
18882
18868
18857
18850
18848
18846
18807
18807
18760
18723
18722
18702
18688
18679
18678
18680
18661
18661
18612
18567
18537
18537
18527
18521
18520
18527
18538
18540
18492
18441
18440
18418
18411
18408
18411
18421
18433
18454
18473
18490
18463
18427
18384
18384
18369
18364
18366
18376
18390
18390
18412
18433
18458
18486
18480
18451
18422
18397
18384
18379
18383
18392
18405
18423
18443
18466
18493
18493
18516
18504
18486
18486
18473
18468
18468
18480
18479
18494
18511
18534
18555
18582
18581
18598
18585
18570
18569
18560
18560
18563
18572
18572
18587
18606
18630
18652
18675
18675
18675
18675
18660
18652
18649
18646
18653
18663
18662
18679
18695
18715
18736
18757
18753
18737
18716
18699
18688
18685
18684
18691
18701
18714
18731
18751
18769
18769
18779
18760
18759
18739
18725
18715
18713
18717
18722
18733
18744
18760
18759
18778
18797
18803
18781
18758
18757
18743
18732
18728
18737
18747
18758
18758
18774
18792
18808
18802
18783
18765
18764
18751
18745
18745
18749
18757
18756
18771
18783
18801
18817
18818
18797
18778
18763
18752
18751
18751
18754
18763
18772
18784
18799
18814
18832
18846
18831
18811
18785
18765
18753
18743
18741
18746
18751
18762
18774
18789
18804
18823
18833
18812
18787
18758
18739
18739
18726
18723
18722
18724
18731
18741
18740
18753
18767
18751
18750
18719
18694
18673
18658
18650
18645
18645
18647
18651
18655
18645
18644
18611
18583
18557
18541
18541
18535
18534
18536
18543
18542
18542
18495
18450
18449
18420
18397
18384
18378
18378
18382
18393
18406
18439
18430
18392
18348
18348
18325
18312
18307
18310
18317
18330
18348
18348
18368
18395
18417
18403
18378
18348
18347
18342
18341
18348
18347
18365
18384
18410
18435
18435
18465
18493
18493
18482
18462
18453
18452
18456
18472
18484
18502
18524
18548
18548
18573
18603
18631
18637
18629
18620
18616
18616
18619
18628
18641
18641
18662
18683
18707
18732
18755
18755
18751
18751
18740
18737
18737
18742
18751
18751
18767
18785
18801
18821
18842
18863
18862
18862
18847
18832
18820
18812
18809
18810
18814
18824
18833
18848
18847
18867
18885
18906
18908
18893
18871
18848
18847
18836
18831
18830
18833
18840
18850
18850
18862
18878
18897
18912
18893
18870
18849
18849
18833
18823
18818
18819
18821
18825
18834
18834
18845
18845
18816
18789
18767
18748
18737
18732
18730
18734
18741
18751
18761
18775
18789
18784
18749
18719
18718
18697
18683
18678
18679
18683
18691
18705
18716
18716
18734
18754
18760
18739
18715
18715
18700
18690
18688
18689
18697
18710
18723
18723
18741
18761
18784
18804
18796
18779
18759
18742
18733
18731
18734
18740
18749
18766
18783
18801
18822
18822
18848
18861
18848
18836
18814
18814
18805
18804
18807
18813
18812
18826
18840
18857
18875
18897
18917
18914
18896
18880
18862
18851
18847
18850
18855
18863
18874
18889
18902
18921
18920
18939
18946
18925
18924
18903
18888
18877
18873
18876
18888
18900
18910
18910
18925
18939
18952
18940
18918
18918
18898
18882
18873
18868
18866
18867
18874
18883
18893
18906
18920
18920
18919
18894
18872
18853
18832
18822
18819
18819
18820
18828
18838
18850
18861
18878
18894
18885
18856
18831
18800
18800
18786
18780
18776
18779
18784
18797
18796
18809
18826
18845
18853
18831
18804
18804
18782
18768
18759
18758
18760
18767
18777
18789
18805
18805
18822
18839
18826
18803
18802
18780
18764
18756
18755
18757
18764
18774
18788
18803
18802
18821
18837
18823
18797
18797
18776
18765
18759
18758
18760
18769
18778
18790
18789
18806
18824
18845
18845
18815
18814
18769
18752
18746
18747
18751
18758
18768
18780
18797
18796
18816
18824
18796
18795
18765
18743
18725
18714
18712
18711
18716
18726
18738
18750
18766
18781
18776
18738
18708
18707
18687
18669
18665
18666
18670
18678
18692
18706
18706
18724
18744
18729
18695
18694
18661
18636
18621
18614
18612
18614
18623
18633
18645
18659
18681
18680
18645
18616
18616
18596
18578
18569
18571
18572
18581
18590
18603
18602
18621
18623
18623
18582
18541
18511
18511
18501
18500
18499
18505
18515
18515
18527
18544
18561
18537
18536
18498
18470
18449
18436
18433
18432
18439
18447
18463
18479
18501
18502
18474
18448
18427
18415
18410
18415
18426
18438
18458
18479
18502
18527
18527
18542
18518
18517
18493
18479
18475
18477
18502
18522
18522
18549
18574
18600
18626
18620
18607
18590
18580
18573
18575
18587
18600
18618
18618
18642
18668
18694
18723
18725
18710
18693
18680
18675
18675
18682
18693
18707
18707
18727
18747
18772
18797
18817
18809
18794
18775
18760
18752
18752
18759
18767
18781
18796
18812
18811
18832
18854
18856
18838
18823
18811
18804
18803
18803
18810
18821
18832
18848
18866
18888
18907
18913
18893
18876
18852
18836
18824
18821
18822
18826
18833
18848
18860
18875
18891
18904
18888
18863
18835
18818
18801
18791
18786
18786
18788
18797
18807
18820
18836
18835
18805
18781
18780
18765
18752
18750
18750
18756
18778
18793
18792
18810
18807
18807
18775
18740
18717
18702
18695
18695
18700
18708
18722
18738
18755
18776
18774
18747
18715
18687
18686
18676
18670
18671
18676
18686
18685
18702
18720
18722
18701
18682
18681
18671
18665
18668
18677
18677
18693
18714
18734
18736
18715
18694
18674
18674
18670
18674
18673
18686
18702
18725
18748
18773
18783
18766
18742
18718
18703
18698
18697
18704
18716
18731
18752
18773
18772
18797
18800
18786
18768
18768
18758
18755
18759
18769
18768
18785
18805
18828
18848
18874
18882
18874
18864
18858
18857
18860
18866
18879
18878
18898
18916
18939
18963
18969
18961
18957
18954
18956
18960
18968
18982
18982
19000
19017
19035
19049
19037
19026
19008
19000
18998
18999
19004
19013
19039
19056
19072
19090
19093
19079
19059
19039
19027
19018
19013
19016
19021
19030
19039
19051
19067
19069
19049
19035
19020
19010
19006
19007
19013
19019
19031
19043
19055
19070
19064
19044
19019
18997
18980
18971
18964
18962
18964
18971
18977
18984
18958
18958
18926
18904
18886
18877
18872
18873
18876
18883
18892
18901
18880
18849
18848
18822
18804
18794
18790
18791
18787
18789
18794
18800
18788
18752
18751
18721
18701
18688
18681
18682
18689
18698
18713
18731
18750
18768
18756
18735
18710
18695
18685
18683
18685
18692
18702
18719
18737
18754
18753
18766
18748
18748
18729
18719
18714
18716
18722
18746
18745
18766
18786
18805
18804
18798
18794
18795
18797
18806
18815
18830
18845
18863
18862
18876
18867
18866
18859
18857
18858
18868
18879
18894
18909
18926
18943
18956
18946
18934
18922
18915
18912
18915
18918
18925
18938
18950
18949
18968
18977
18966
18955
18947
18947
18947
18947
18955
18966
18979
18995
19012
19031
19039
19033
19031
19032
19032
19035
19041
19050
19057
19069
19069
19060
19060
19049
19041
19035
19033
19038
19042
19051
19060
19060
19060
19044
19029
19013
19004
18998
19000
19002
19009
19017
19029
19039
19047
19031
19014
18994
18978
18967
18962
18960
18961
18966
18974
18985
18996
18990
18973
18955
18945
18945
18942
18943
18944
18944
18955
18963
18949
18949
18931
18917
18909
18905
18906
18911
18916
18925
18938
18930
18904
18881
18862
18849
18840
18839
18840
18846
18854
18865
18879
18894
18895
18875
18849
18825
18824
18815
18812
18814
18818
18828
18827
18842
18856
18875
18895
18900
18881
18860
18836
18823
18822
18820
18823
18823
18831
18843
18857
18873
18891
18911
18917
18899
18878
18862
18852
18843
18840
18843
18849
18858
18870
18882
18898
18915
18933
18933
18933
18915
18891
18879
18871
18866
18866
18870
18878
18890
18901
18919
18919
18937
18950
18934
18934
18912
18895
18884
18873
18871
18871
18875
18882
18894
18903
18919
18927
18906
18883
18859
18839
18823
18811
18809
18806
18820
18829
18841
18855
18859
18829
18799
18798
18778
18760
18751
18749
18753
18758
18766
18776
18790
18809
18809
18808
18781
18747
18723
18706
18706
18703
18706
18705
18716
18729
18748
18766
18787
18783
18756
18725
18725
18709
18697
18693
18700
18707
18719
18718
18737
18758
18778
18796
18780
18750
18717
18716
18699
18689
18688
18690
18698
18707
18722
18721
18739
18758
18761
18731
18731
18698
18675
18658
18652
18651
18654
18661
18673
18688
18707
18724
18724
18723
18694
18660
18638
18619
18619
18615
18615
18620
18634
18647
18666
18683
18686
18647
18614
18613
18592
18573
18565
18565
18569
18574
18589
18626
18626
18638
18638
18598
18559
18529
18529
18518
18514
18515
18523
18535
18535
18554
18575
18597
18603
18566
18532
18531
18511
18495
18492
18495
18506
18519
18537
18536
18560
18586
18611
18611
18588
18570
18553
18540
18535
18542
18555
18566
18585
18611
18635
18634
18662
18672
18656
18638
18623
18619
18620
18627
18639
18655
18676
18696
18718
18717
18742
18767
18759
18741
18727
18712
18712
18712
18712
18727
18743
18761
18784
18808
18808
18835
18856
18849
18839
18825
18816
18811
18814
18821
18833
18845
18864
18883
18906
18906
18927
18928
18916
18907
18907
18901
18901
18904
18904
18915
18932
18952
18972
18993
19013
19010
18985
18967
18948
18937
18928
18927
18930
18937
18945
18959
18975
18993
19009
18980
18950
18916
18916
18896
18887
18880
18879
18883
18889
18894
18904
18916
18918
18878
18835
18834
18803
18772
18755
18744
18736
18729
18732
18733
18743
18749
18713
18712
18670
18633
18633
18613
18602
18596
18594
18596
18605
18609
18575
18526
18526
18486
18453
18452
18440
18431
18429
18435
18444
18443
18443
18391
18340
18339
18310
18288
18279
18275
18280
18290
18307
18324
18352
18361
18325
18285
18245
18244
18232
18234
18243
18242
18261
18286
18314
18345
18345
18359
18339
18338
18319
18313
18314
18324
18340
18339
18360
18384
18414
18440
18440
18436
18429
18424
18427
18431
18445
18463
18483
18506
18506
18536
18570
18582
18577
18569
18566
18568
18574
18586
18608
18607
18633
18659
18687
18713
18713
18728
18725
18718
18715
18716
18720
18727
18733
18743
18757
18774
18794
18815
18815
18816
18807
18798
18795
18795
18798
18807
18821
18836
18855
18875
18896
18896
18920
18933
18929
18927
18921
18920
18923
18928
18937
18949
18965
18978
18993
19016
19016
19031
19024
19017
19009
19009
19007
19010
19012
19012
19022
19033
19045
19061
19077
19092
19089
19072
19055
19037
19024
19016
19011
19008
19007
19008
19012
19017
19028
19040
19052
19028
19001
19001
18971
18948
18933
18923
18915
18914
18913
18920
18927
18938
18951
18942
18942
18908
18874
18849
18828
18815
18815
18808
18814
18814
18826
18835
18846
18818
18817
18787
18760
18760
18752
18751
18752
18757
18766
18766
18780
18793
18792
18746
18698
18698
18669
18654
18645
18639
18641
18649
18660
18673
18689
18689
18701
18701
18664
18622
18591
18591
18578
18579
18579
18589
18603
18603
18621
18641
18648
18621
18594
18594
18577
18565
18564
18569
18579
18593
18592
18615
18638
18653
18626
18599
18598
18580
18568
18569
18574
18586
18601
18601
18623
18650
18677
18684
18656
18630
18604
18591
18590
18591
18590
18605
18622
18645
18669
18695
18694
18709
18690
18690
18666
18658
18655
18660
18669
18681
18680
18704
18727
18752
18783
18783
18782
18776
18768
18769
18771
18771
18788
18809
18830
18856
18883
18883
18889
18886
18881
18880
18882
18890
18902
18916
18933
18956
18979
18979
19005
19027
19030
19024
19016
19009
19007
19011
19020
19032
19046
19066
19065
19086
19106
19132
19133
19127
19116
19110
19107
19109
19112
19118
19128
19138
19152
19170
19170
19169
19169
19161
19153
19148
19144
19149
19155
19165
19165
19177
19192
19205
19214
19200
19188
19167
19167
19157
19153
19153
19155
19163
19173
19173
19186
19179
19170
19170
19158
19154
19153
19157
19161
19172
19172
19185
19196
19189
19178
19178
19169
19164
19163
19168
19172
19172
19187
19199
19213
19222
19217
19206
19196
19191
19189
19192
19196
19204
19217
19231
19246
19263
19277
19274
19263
19248
19241
19233
19230
19233
19241
19249
19257
19268
19281
19273
19266
19254
19252
19247
19251
19256
19265
19274
19289
19305
19305
19320
19321
19318
19313
19310
19312
19314
19321
19329
19340
19350
19361
19375
19389
19395
19394
19392
19389
19386
19389
19395
19398
19406
19406
19418
19434
19446
19459
19458
19458
19458
19462
19466
19475
19483
19492
19505
19513
19523
19535
19535
19532
19532
19532
19529
19530
19530
19530
19537
19541
19548
19558
19567
19566
19560
19551
19545
19537
19533
19530
19533
19532
19534
19537
19542
19533
19533
19524
19513
19499
19489
19487
19483
19482
19480
19482
19474
19453
19430
19430
19411
19394
19382
19364
19361
19355
19339
19309
19309
19280
19253
19234
19215
19201
19201
19193
19184
19147
19109
19108
19072
19041
19017
18996
18996
18985
18982
18980
18953
18921
18897
18876
18876
18864
18862
18861
18865
18868
18858
18825
18796
18771
18771
18760
18758
18754
18756
18764
18769
18742
18706
18666
18666
18647
18641
18639
18644
18654
18654
18669
18686
18670
18670
18640
18621
18604
18599
18597
18605
18612
18626
18641
18663
18662
18650
18649
18621
18603
18587
18580
18580
18586
18595
18606
18623
18629
18602
18573
18543
18542
18527
18519
18518
18521
18531
18540
18545
18514
18476
18432
18432
18410
18399
18397
18409
18424
18440
18439
18439
18401
18360
18334
18334
18325
18324
18328
18337
18336
18358
18378
18393
18366
18334
18333
18315
18298
18297
18299
18307
18320
18339
18358
18358
18380
18366
18344
18344
18331
18325
18329
18337
18348
18348
18369
18393
18420
18441
18437
18429
18419
18418
18420
18430
18444
18444
18463
18488
18514
18537
18548
18546
18544
18546
18551
18551
18567
18583
18603
18625
18647
18647
18655
18652
18649
18648
18650
18656
18670
18685
18699
18720
18738
18757
18754
18746
18743
18742
18744
18752
18751
18767
18784
18804
18824
18837
18835
18831
18830
18834
18841
18852
18866
18866
18882
18900
18898
18890
18882
18876
18874
18875
18881
18891
18902
18919
18931
18933
18917
18902
18888
18879
18875
18884
18891
18905
18918
18936
18942
18926
18907
18887
18876
18870
18868
18870
18876
18887
18898
18911
18926
18944
18939
18917
18890
18867
18850
18841
18839
18843
18847
18857
18866
18879
18894
18910
18907
18888
18866
18843
18842
18834
18830
18833
18837
18837
18848
18860
18874
18880
18856
18830
18829
18810
18793
18787
18786
18788
18793
18803
18817
18832
18848
18849
18820
18784
18744
18744
18723
18715
18710
18713
18719
18730
18729
18744
18761
18777
18764
18734
18733
18705
18684
18672
18666
18668
18670
18679
18689
18704
18722
18741
18755
18734
18702
18668
18639
18639
18624
18620
18618
18618
18625
18635
18634
18647
18634
18634
18593
18554
18528
18528
18516
18514
18514
18519
18530
18530
18545
18565
18581
18551
18550
18517
18496
18477
18466
18465
18464
18464
18471
18464
