19530
19519
19512
19505
19498
19486
19475
19466
19458
19458
19429
19409
19394
19383
19378
19379
19381
19388
19387
19369
19353
19344
19343
19343
19347
19347
19352
19344
19343
19328
19313
19303
19298
19304
19312
19323
19318
19300
19274
19251
19229
19229
19219
19218
19214
19188
19166
19147
19132
19132
19134
19138
19142
19138
19128
19114
19113
19093
19085
19083
19075
19053
19038
19031
19029
19039
19060
19085
19104
19118
19117
19153
19197
19197
19238
19296
19319
19319
19346
19379
19409
19409
19426
19441
19458
19476
19502
19527
19527
19538
19547
19559
19567
19582
19600
19610
19613
19617
19628
19628
19647
19666
19675
19678
19685
19692
19700
19712
19729
19736
19739
19741
19742
19742
19746
19747
19739
19735
19732
19728
19728
19736
19739
19733
19732
19735
19741
19743
19749
19738
19724
19713
19710
19707
19708
19703
19684
19668
19659
19649
19647
19650
19653
19642
19642
19638
19632
19625
19618
19596
19570
19551
19532
19523
19523
19508
19486
19472
19459
19446
19438
19432
19413
19413
19391
19376
19362
19356
19351
19327
19306
19288
19288
19278
19273
19260
19240
19222
19211
19204
19200
19194
19183
19183
19181
19182
19182
19195
19212
19213
19201
19194
19189
19189
19186
19173
19153
19139
19130
19126
19124
19127
19110
19096
19082
19077
19071
19062
19061
19026
18995
18975
18958
18958
18949
18941
18913
18883
18859
18843
18842
18832
18821
18800
18767
18743
18730
18718
18717
18713
18693
18663
18629
18604
18603
18604
18603
18615
18617
18615
18607
18610
18607
18607
18605
18598
18597
18574
18561
18559
18561
18567
18577
18574
18562
18554
18551
18556
18565
18579
18586
18583
18581
18590
18589
18610
18632
18657
18669
18676
18681
18699
18698
18721
18740
18754
18757
18758
18762
18771
18778
18790
18811
18811
18822
18836
18855
18877
18901
18901
18926
18939
18942
18946
18960
18964
18978
18993
19010
19020
19020
19032
19048
19062
19073
19083
19086
19086
19083
19079
19075
19075
19076
19082
19084
19083
19082
19084
19092
19101
19109
19123
19127
19121
19113
19106
19096
19079
19077
19083
19083
19082
19084
19086
19086
19090
19089
19085
19084
19096
19106
19110
19100
19083
19069
19059
19044
19034
19031
19032
19027
19006
19006
18996
18990
18982
18977
18982
18982
18961
18932
18909
18895
18895
18888
18890
18893
18891
18859
18821
18791
18769
18769
18756
18749
18740
18716
18697
18700
18699
18685
18673
18682
18690
18681
18667
18667
18653
18638
18631
18632
18640
18640
18636
18640
18652
18660
18660
18678
18683
18679
18677
18679
18685
18691
18702
18712
18710
18711
18710
18716
18726
18766
18778
18783
18788
18788
18798
18812
18834
18848
18851
18846
18843
18847
18856
18859
18873
18877
18880
18886
18900
18900
18920
18935
18937
18939
18947
18961
18967
18972
18982
18989
18988
18987
18986
18989
18995
19002
19004
19001
18992
18987
18986
18992
18999
19011
19014
19013
19015
19018
19026
19026
19034
19040
19045
19044
19041
19040
19039
19040
19049
19063
19068
19065
19065
19063
19069
19072
19080
19087
19091
19088
19085
19084
19083
19081
19084
19091
19091
19081
19069
19059
19048
19039
19049
19057
19055
19044
19029
19029
19000
18989
18991
18988
18966
18941
18917
18917
18895
18875
18860
18827
18827
18804
18788
18782
18779
18776
18768
18759
18759
18762
18774
18789
18795
18787
18784
18784
18790
18798
18810
18814
18820
18819
18818
18822
18837
18856
18856
18864
18878
18889
18903
18914
18925
18929
18924
18915
18909
18910
18918
18922
18923
18928
18938
18955
18955
18971
18964
18955
18949
18945
18946
18948
18945
18945
18925
18909
18902
18907
18921
18923
18917
18914
18908
18905
18906
18903
18880
18860
18849
18843
18838
18835
18834
18807
18783
18772
18764
18758
18743
18712
18711
18705
18699
18699
18696
18679
18659
18645
18636
18626
18632
18624
18596
18596
18583
18572
18565
18566
18549
18536
18526
18537
18542
18519
18497
18484
18477
18477
18476
18476
18441
18419
18406
18390
18383
18376
18375
18349
18324
18310
18304
18304
18301
18280
18264
18264
18259
18264
18263
18262
18261
18249
18245
18248
18256
18256
18259
18259
18244
18231
18219
18209
18210
18200
18182
18174
18177
18188
18207
18230
18243
18241
18240
18242
18246
18250
18249
18271
18274
18274
18280
18296
18314
18336
18353
18353
18362
18350
18349
18343
18340
18350
18349
18364
18374
18370
18367
18364
18362
18375
18400
18416
18414
18386
18338
18338
18305
18282
18271
18272
18277
18288
18294
18283
18276
18277
18284
18297
18314
18335
18360
18364
18358
18354
18356
18363
18362
18380
18404
18423
18419
18399
18389
18387
18387
18399
18413
18434
18448
18432
18415
18409
18404
18405
18407
18411
18411
18390
18361
18341
18340
18340
18356
18379
18400
18409
18395
18377
18363
18358
18354
18351
18353
18357
18366
18368
18351
18332
18331
18330
18332
18332
18345
18364
18387
18388
18374
18366
18362
18361
18368
18376
18382
18391
18404
18398
18383
18373
18369
18376
18389
18411
18435
18435
18439
18430
18430
18426
18427
18427
18439
18454
18471
18471
18463
18460
18469
18483
18503
18521
18540
18551
18538
18519
18506
18495
18488
18480
18480
18481
18470
18463
18466
18471
18475
18475
18470
18475
18450
18450
18409
18381
18380
18389
18403
18431
18452
18456
18457
18464
18463
18486
18508
18526
18534
18530
18529
18540
18559
18559
18582
18597
18602
18608
18618
18630
18634
18653
18653
18684
18708
18724
18742
18742
18763
18791
18809
18805
18793
18791
18789
18790
18792
18799
18794
18786
18777
18771
18768
18768
18771
18781
18785
18787
18791
18802
18819
18836
18851
18851
18852
18852
18852
18850
18846
18837
18819
18802
18786
18774
18768
18763
18758
18754
18737
18737
18717
18706
18695
18684
18683
18659
18630
18630
18610
18595
18586
18580
18567
18535
18535
18513
18498
18476
18464
18465
18444
18444
18416
18395
18380
18371
18368
18363
18335
18335
18303
18285
18271
18263
18258
18245
18244
18217
18190
18162
18144
18137
18140
18133
18132
18123
18128
18128
18147
18168
18190
18210
18200
18208
18224
18239
18243
18243
18251
18234
18233
18231
18232
18235
18234
18255
18270
18270
18279
18305
18329
18329
18357
18396
18423
18439
18447
18447
18458
18471
18489
18516
18544
18550
18548
18549
18551
18551
18555
18555
18582
18600
18606
18613
18625
18642
18663
18663
18692
18707
18719
18725
18735
18751
18751
18772
18787
18789
18785
18784
18781
18779
18783
18797
18809
18813
18808
18802
18801
18808
18809
18809
18806
18800
18784
18769
18765
18763
18761
18763
18766
18763
18755
18753
18750
18748
18746
18747
18748
18744
18730
18730
18730
18734
18737
18742
18745
18739
18736
18734
18733
18734
18736
18741
18727
18727
18716
18711
18711
18716
18723
18715
18705
18700
18698
18697
18701
18709
18718
18706
18702
18701
18710
18725
18725
18741
18742
18733
18724
18721
18721
18716
18717
18716
18701
18691
18693
18697
18701
18704
18709
18704
18702
18697
18695
18689
18687
18683
18683
18675
18662
18652
18645
18646
18657
18670
18677
18672
18670
18660
18649
18638
18636
18631
18622
18622
18617
18626
18626
18638
18655
18665
18654
18640
18632
18630
18635
18642
18654
18666
18672
18667
18661
18661
18661
18669
18677
18684
18683
18679
18682
18685
18689
18693
18700
18705
18696
18673
18648
18648
18625
18604
18587
18573
18572
18554
18543
18535
18534
18541
18541
18535
18532
18535
18536
18545
18551
18563
18562
18563
18559
18561
18565
18573
18583
18602
18617
18626
18634
18649
18665
18665
18685
18708
18731
18744
18755
18762
18770
18778
18778
18795
18810
18816
18819
18824
18830
18840
18854
18870
18879
18881
18880
18877
18872
18872
18878
18885
18885
18885
18885
18878
18876
18878
18879
18886
18886
18894
18890
18877
18877
18866
18860
18861
18868
18874
18869
18868
18864
18863
18870
18874
18874
18886
18893
18891
18890
18890
18896
18907
18919
18936
18954
18953
18949
18938
18934
18939
18946
18950
18956
18964
18966
18966
18968
18969
18972
18976
18988
19001
19010
19015
19015
19019
19025
19038
19049
19061
19076
19085
19086
19087
19094
19097
19103
19109
19110
19101
19093
19085
19076
19075
19075
19078
19078
19072
19057
19044
19033
19030
19028
19030
19036
19042
19038
19029
19021
19009
18997
18996
18997
19001
19001
18996
18992
18987
18984
18986
18990
18987
18976
18958
18941
18928
18924
18920
18922
18921
18906
18892
18885
18885
18882
18884
18884
18884
18867
18851
18836
18824
18813
18813
18806
18791
18778
18771
18769
18771
18776
18788
18786
18775
18762
18754
18754
18749
18750
18744
18730
18713
18701
18691
18689
18690
18700
18699
18691
18681
18673
18666
18665
18667
18662
18641
18641
18621
18597
18582
18569
18562
18539
18539
18505
18476
18474
18477
18489
18489
18488
18498
18515
18532
18549
18549
18563
18561
18553
18549
18545
18550
18560
18570
18568
18567
18570
18572
18576
18575
18577
18588
18597
18607
18615
18626
18639
18639
18653
18665
18675
18685
18696
18704
18723
18741
18759
18759
18776
18793
18810
18829
18841
18847
18856
18867
18867
18882
18900
18915
18918
18920
18925
18928
18930
18935
18938
18932
18931
18934
18940
18943
18951
18956
18953
18949
18944
18937
18937
18933
18928
18912
18893
18878
18878
18870
18866
18864
18846
18823
18799
18782
18770
18760
18760
18729
18693
18662
18662
18641
18624
18612
18582
18542
18541
18502
18460
18460
18424
18379
18378
18339
18314
18294
18284
18284
18276
18276
18250
18236
18227
18229
18233
18221
18192
18192
18173
18170
18167
18165
18153
18136
18125
18123
18124
18133
18148
18165
18170
18168
18159
18149
18146
18152
18164
18176
18174
18165
18159
18160
18162
18169
18168
18173
18167
18167
18166
18175
18188
18205
18222
18225
18215
18202
18193
18188
18188
18200
18215
18218
18225
18235
18243
18254
18271
18271
18288
18289
18291
18301
18310
18321
18339
18357
18368
18370
18368
18372
18378
18378
18387
18392
18389
18386
18384
18391
18398
18406
18418
18428
18427
18427
18430
18442
18447
18456
18464
18464
18463
18462
18466
18472
18479
18486
18489
18489
18491
18495
18495
18497
18495
18495
18479
18471
18463
18457
18457
18447
18430
18416
18405
18405
18406
18413
18411
18409
18406
18407
18408
18408
18410
18410
18397
18389
18379
18374
18368
18372
18378
18375
18369
18363
18362
18368
18378
18386
18395
18397
18391
18379
18365
18353
18348
18348
18345
18344
18338
18326
18319
18318
18318
18323
18323
18320
18319
18317
18298
18283
18273
18267
18259
18253
18250
18243
18242
18240
18228
18216
18215
18205
18194
18184
18177
18173
18165
18153
18122
18097
18096
18068
18050
18039
18034
18033
18026
18013
18012
17971
17935
17906
17905
17893
17886
17882
17875
17857
17832
17809
17788
17788
17779
17774
17776
17786
17785
17789
17782
17782
17779
17776
17776
17778
17780
17782
17784
17784
17782
17782
17777
17781
17780
17797
17845
17862
17881
17881
17886
17881
17880
17874
17872
17868
17870
17870
17881
17896
17915
17924
17914
17898
17876
17876
17865
17853
17846
17844
17837
17828
17816
17805
17798
17802
17808
17813
17820
17817
17797
17780
17773
17774
17772
17775
17774
17765
17753
17738
17737
17740
17739
17748
17752
17756
17737
17737
17717
17695
17677
17665
17662
17664
17669
17661
17654
17650
17641
17631
17616
17616
17612
17607
17592
17584
17576
17570
17561
17553
17547
17543
17543
17535
17525
17514
17501
17503
17505
17516
17531
17548
17567
17577
17574
17562
17550
17540
17532
17530
17530
17532
17538
17545
17549
17552
17554
17576
17588
17588
17614
17643
17671
17689
17697
17704
17706
17706
17719
17731
17740
17745
17753
17764
17766
17768
17772
17785
17798
17812
17811
17821
17829
17830
17825
17818
17809
17809
17796
17788
17784
17782
17783
17784
17792
17796
17786
17776
17765
17753
17745
17742
17741
17743
17748
17752
17750
17742
17740
17741
17745
17755
17766
17780
17783
17777
17771
17768
17768
17774
17783
17783
17782
17817
17820
17812
17806
17798
17789
17791
17801
17805
17791
17778
17778
17759
17740
17725
17715
17709
17696
17667
17667
17643
17620
17608
17598
17590
17574
17574
17533
17508
17494
17487
17486
17492
17501
17510
17498
17481
17465
17457
17457
17453
17453
17460
17470
17466
17465
17451
17449
17455
17454
17479
17493
17512
17502
17491
17484
17492
17512
17525
17545
17545
17558
17565
17572
17579
17585
17595
17600
17610
17620
17624
17628
17634
17646
17660
17660
17684
17708
17729
17738
17746
17756
17764
17778
17778
17795
17815
17836
17849
17856
17862
17871
17877
17877
17894
17913
17926
17937
17944
17948
17948
17946
17958
17976
17991
18003
18003
18003
18003
18015
18034
18048
18063
18073
18078
18073
18065
18068
18072
18069
18078
18096
18102
18096
18098
18109
18109
18121
18133
18150
18152
18167
18172
18178
18183
18193
18202
18227
18237
18237
18249
18254
18255
18258
18265
18274
18266
18254
18242
18246
18255
18267
18285
18282
18262
18243
18233
18228
18228
18230
18230
18230
18220
18206
18191
18177
18164
18153
18144
18141
18123
18123
18097
18080
18072
18070
18070
18070
18062
18031
17998
17998
17974
17952
17931
17923
17918
17918
17885
17852
17827
17812
17807
17815
17828
17838
17835
17802
17802
17751
17715
17714
17697
17684
17682
17685
17689
17668
17631
17630
17588
17554
17532
17519
17519
17523
17513
17512
17484
17459
17451
17449
17450
17450
17459
17461
17442
17411
17411
17405
17411
17421
17421
17437
17463
17488
17490
17477
17463
17456
17446
17433
17430
17435
17449
17438
17417
17416
17412
17411
17422
17438
17454
17472
17492
17485
17470
17456
17455
17462
17471
17486
17510
17509
17535
17556
17560
17549
17531
17517
17494
17500
17516
17532
17546
17547
17544
17538
17542
17550
17563
17579
17596
17595
17614
17621
17616
17616
17622
17631
17648
17665
17683
17703
17703
17714
17724
17721
17716
17705
17705
17693
17692
17697
17697
17715
17733
17742
17744
17747
17753
17760
17768
17781
17795
17808
17808
17816
17817
17810
17806
17808
17813
17825
17839
17854
17868
17884
17896
17898
17892
17883
17884
17886
17894
17894
17910
17929
17947
17964
17972
17976
17974
17979
17988
17996
18007
18018
18018
18038
18049
18058
18069
18076
18084
18094
18103
18114
18128
18128
18145
18164
18175
18185
18191
18196
18196
18201
18208
18222
18237
18237
18238
18232
18227
18229
18234
18243
18254
18261
18273
18280
18284
18280
18276
18271
18270
18273
18278
18284
18296
18309
18326
18332
18329
18315
18307
18296
18292
18289
18290
18289
18293
18296
18294
18281
18266
18250
18240
18233
18227
18229
18235
18239
18239
18227
18219
18209
18202
18199
18200
18203
18207
18215
18220
18217
18208
18197
18193
18193
18195
18195
18202
18211
18223
18237
18244
18238
18232
18220
18214
18208
18208
18207
18210
18216
18217
18209
18201
18192
18187
18185
18187
18189
18195
18198
18208
18214
18213
18203
18192
18182
18177
18177
18177
18181
18189
18203
18215
18212
18199
18178
18178
18163
18150
18145
18142
18141
18142
18133
18117
18105
18092
18087
18083
18086
18089
18095
18093
18093
18078
18065
18061
18062
18067
18071
18080
18076
18061
18038
18019
18005
17996
17992
17994
18002
18008
18005
17988
17972
17972
17967
17965
17971
17977
17977
17988
17995
17986
17986
17973
17971
17971
17975
17986
17986
18001
18015
18034
18035
18025
18012
18005
18005
18007
18014
18029
18045
18061
18080
18092
18089
18084
18078
18078
18082
18086
18086
18099
18115
18130
18141
18145
18152
18157
18167
18179
18193
18205
18205
18219
18234
18247
18250
18247
18246
18248
18249
18254
18266
18280
18296
18313
18313
18321
18325
18327
18332
18336
18341
18348
18359
18370
18384
18394
18404
18406
18405
18406
18405
18411
18417
18421
18431
18440
18448
18450
18448
18442
18436
18429
18429
18429
18434
18436
18445
18455
18455
18452
18452
18444
18440
18435
18435
18438
18443
18448
18456
18456
18461
18461
18453
18446
18446
18441
18435
18435
18433
18431
18436
18438
18448
18455
18455
18451
18443
18436
18432
18421
18416
18419
18428
18441
18459
18459
18474
18480
18473
18470
18468
18468
18469
18472
18477
18484
18488
18484
18467
18450
18450
18442
18442
18442
18446
18458
18458
18475
18485
18485
18472
18456
18456
18444
18440
18439
18452
18461
18459
18451
18443
18439
18440
18440
18443
18449
18456
18457
18444
18434
18433
18440
18451
18457
18462
18468
18468
18468
18462
18453
18450
18446
18441
18439
18445
18447
18443
18429
18423
18422
18425
18429
18435
18444
18452
18462
18473
18473
18474
18472
18472
18469
18469
18469
18472
18478
18478
18485
18488
18483
18476
18470
18468
18472
18478
18493
18508
18518
18525
18534
18538
18540
18539
18540
18542
18549
18564
18586
18586
18605
18623
18640
18660
18666
18665
18659
18654
18649
18650
18655
18663
18671
18686
18699
18699
18713
18718
18717
18708
18700
18690
18684
18683
18683
18683
18694
18705
18717
18727
18737
18736
18728
18716
18707
18696
18684
18684
18673
18663
18661
18668
18659
18642
18622
18607
18600
18596
18596
18605
18621
18637
18653
18665
18659
18639
18629
18624
18616
18611
18606
18610
18618
18623
18618
18604
18589
18585
18590
18577
18591
18604
18603
18612
18632
18639
18630
18623
18623
18624
18638
18659
18675
18691
18703
18701
18695
18685
18680
18675
18672
18677
18682
