0,14435,
0.0025,14432,
0.005,14421,
0.0075,14424,
0.01,14425,
0.0125,14428,
0.015,14427,
0.0175,14429,
0.02,14426,
0.0225,14429,
0.025,14428,
0.0275,14427,
0.03,14427,
0.0325,14428,
0.035,14425,
0.0375,14419,
0.04,14430,
0.0425,14431,
0.045,14433,
0.0475,14432,
0.05,14437,
0.0525,14430,
0.055,14429,
0.0575,14427,
0.06,14432,
0.0625,14433,
0.065,14436,
0.0675,14444,
0.07,14432,
0.0725,14446,
0.075,14436,
0.0775,14437,
0.08,14444,
0.0825,14443,
0.085,14446,
0.0875,14436,
0.09,14439,
0.0925,14435,
0.095,14430,
0.0975,14438,
0.1,14438,
0.1025,14443,
0.105,14445,
0.1075,14442,
0.11,14437,
0.1125,14448,
0.115,14443,
0.1175,14439,
0.12,14441,
0.1225,14445,
0.125,14445,
0.1275,14450,
0.13,14454,
0.1325,14450,
0.135,14448,
0.1375,14456,
0.14,14447,
0.1425,14455,
0.145,14452,
0.1475,14453,
0.15,14445,
0.1525,14453,
0.155,14455,
0.1575,14457,
0.16,14457,
0.1625,14451,
0.165,14454,
0.1675,14447,
0.17,14462,
0.1725,14458,
0.175,14463,
0.1775,14447,
0.18,14453,
0.1825,14458,
0.185,14449,
0.1875,14459,
0.19,14465,
0.1925,14457,
0.195,14459,
0.1975,14459,
0.2,14457,
0.2025,14460,
0.205,14471,
0.2075,14458,
0.21,14460,
0.2125,14465,
0.215,14464,
0.2175,14460,
0.22,14462,
0.2225,14459,
0.225,14471,
0.2275,14469,
0.23,14468,
0.2325,14472,
0.235,14475,
0.2375,14474,
0.24,14472,
0.2425,14466,
0.245,14470,
0.2475,14471,
0.25,14472,
0.2525,14469,
0.255,14479,
0.2575,14482,
0.26,14476,
0.2625,14469,
0.265,14471,
0.2675,14473,
0.27,14474,
0.2725,14484,
0.275,14479,
0.2775,14475,
0.28,14479,
0.2825,14474,
0.285,14480,
0.2875,14478,
0.29,14482,
0.2925,14484,
0.295,14482,
0.2975,14481,
0.3,14488,
0.3025,14495,
0.305,14482,
0.3075,14491,
0.31,14482,
0.3125,14487,
0.315,14487,
0.3175,14490,
0.32,14499,
0.3225,14492,
0.325,14490,
0.3275,14489,
0.33,14489,
0.3325,14489,
0.335,14495,
0.3375,14482,
0.34,14507,
0.3425,14498,
0.345,14492,
0.3475,14487,
0.35,14486,
0.3525,14491,
0.355,14492,
0.3575,14482,
0.36,14486,
0.3625,14481,
0.365,14489,
0.3675,14482,
0.37,14494,
0.3725,14488,
0.375,14491,
0.3775,14494,
0.38,14482,
0.3825,14493,
0.385,14484,
0.3875,14483,
0.39,14476,
0.3925,14482,
0.395,14479,
0.3975,14482,
0.4,14476,
0.4025,14481,
0.405,14478,
0.4075,14478,
0.41,14469,
0.4125,14476,
0.415,14471,
0.4175,14475,
0.42,14478,
0.4225,14472,
0.425,14483,
0.4275,14475,
0.43,14470,
0.4325,14472,
0.435,14467,
0.4375,14470,
0.44,14476,
0.4425,14473,
0.445,14477,
0.4475,14472,
0.45,14471,
0.4525,14471,
0.455,14471,
0.4575,14470,
0.46,14466,
0.4625,14475,
0.465,14467,
0.4675,14474,
0.47,14471,
0.4725,14468,
0.475,14470,
0.4775,14469,
0.48,14474,
0.4825,14469,
0.485,14467,
0.4875,14471,
0.49,14465,
0.4925,14469,
0.495,14468,
0.4975,14462,
0.5,14470,
0.5025,14472,
0.505,14467,
0.5075,14466,
0.51,14461,
0.5125,14468,
0.515,14463,
0.5175,14463,
0.52,14465,
0.5225,14468,
0.525,14464,
0.5275,14467,
0.53,14472,
0.5325,14465,
0.535,14475,
0.5375,14458,
0.54,14471,
0.5425,14464,
0.545,14468,
0.5475,14474,
0.55,14464,
0.5525,14474,
0.555,14464,
0.5575,14466,
0.56,14468,
0.5625,14474,
0.565,14462,
0.5675,14461,
0.57,14466,
0.5725,14466,
0.575,14464,
0.5775,14465,
0.58,14463,
0.5825,14463,
0.585,14469,
0.5875,14467,
0.59,14465,
0.5925,14473,
0.595,14470,
0.5975,14470,
0.6,14466,
0.6025,14471,
0.605,14472,
0.6075,14468,
0.61,14471,
0.6125,14465,
0.615,14470,
0.6175,14465,
0.62,14468,
0.6225,14466,
0.625,14466,
0.6275,14467,
0.63,14467,
0.6325,14463,
0.635,14464,
0.6375,14478,
0.64,14465,
0.6425,14462,
0.645,14470,
0.6475,14468,
0.65,14462,
0.6525,14468,
0.655,14464,
0.6575,14475,
0.66,14465,
0.6625,14469,
0.665,14468,
0.6675,14466,
0.67,14465,
0.6725,14467,
0.675,14464,
0.6775,14472,
0.68,14476,
0.6825,14480,
0.685,14469,
0.6875,14466,
0.69,14469,
0.6925,14472,
0.695,14473,
0.6975,14469,
0.7,14471,
0.7025,14473,
0.705,14476,
0.7075,14474,
0.71,14471,
0.7125,14472,
0.715,14471,
0.7175,14470,
0.72,14467,
0.7225,14489,
0.725,14477,
0.7275,14479,
0.73,14473,
0.7325,14475,
0.735,14483,
0.7375,14476,
0.74,14478,
0.7425,14474,
0.745,14475,
0.7475,14471,
0.75,14480,
0.7525,14481,
0.755,14476,
0.7575,14479,
0.76,14480,
0.7625,14474,
0.765,14480,
0.7675,14479,
0.77,14477,
0.7725,14482,
0.775,14474,
0.7775,14481,
0.78,14480,
0.7825,14477,
0.785,14483,
0.7875,14484,
0.79,14474,
0.7925,14483,
0.795,14480,
0.7975,14479,
0.8,14481,
0.8025,14483,
0.805,14483,
0.8075,14486,
0.81,14481,
0.8125,14476,
0.815,14480,
0.8175,14481,
0.82,14478,
0.8225,14484,
0.825,14480,
0.8275,14485,
0.83,14485,
0.8325,14487,
0.835,14486,
0.8375,14486,
0.84,14489,
0.8425,14488,
0.845,14484,
0.8475,14483,
0.85,14494,
0.8525,14495,
0.855,14496,
0.8575,14498,
0.86,14487,
0.8625,14491,
0.865,14497,
0.8675,14498,
0.87,14488,
0.8725,14503,
0.875,14498,
0.8775,14495,
0.88,14494,
0.8825,14500,
0.885,14502,
0.8875,14498,
0.89,14497,
0.8925,14511,
0.895,14498,
0.8975,14498,
0.9,14494,
0.9025,14504,
0.905,14502,
0.9075,14503,
0.91,14501,
0.9125,14500,
0.915,14503,
0.9175,14508,
0.92,14504,
0.9225,14505,
0.925,14500,
0.9275,14502,
0.93,14503,
0.9325,14503,
0.935,14500,
0.9375,14495,
0.94,14499,
0.9425,14504,
0.945,14500,
0.9475,14507,
0.95,14502,
0.9525,14510,
0.955,14508,
0.9575,14501,
0.96,14510,
0.9625,14506,
0.965,14511,
0.9675,14504,
0.97,14507,
0.9725,14511,
0.975,14510,
0.9775,14517,
0.98,14513,
0.9825,14510,
0.985,14517,
0.9875,14521,
0.99,14510,
0.9925,14508,
0.995,14512,
0.9975,14513,
1,14508,
1.0025,14518,
1.005,14509,
1.0075,14516,
1.01,14519,
1.0125,14520,
1.015,14514,
1.0175,14510,
1.02,14518,
1.0225,14516,
1.025,14509,
1.0275,14516,
1.03,14515,
1.0325,14510,
1.035,14512,
1.0375,14512,
1.04,14513,
1.0425,14510,
1.045,14508,
1.0475,14509,
1.05,14504,
1.0525,14505,
1.055,14508,
1.0575,14508,
1.06,14502,
1.0625,14495,
1.065,14500,
1.0675,14495,
1.07,14497,
1.0725,14490,
1.075,14489,
1.0775,14497,
1.08,14486,
1.0825,14496,
1.085,14492,
1.0875,14487,
1.09,14494,
1.0925,14474,
1.095,14486,
1.0975,14488,
1.1,14480,
1.1025,14490,
1.105,14488,
1.1075,14482,
1.11,14478,
1.1125,14479,
1.115,14481,
1.1175,14476,
1.12,14484,
1.1225,14473,
1.125,14477,
1.1275,14477,
1.13,14478,
1.1325,14481,
1.135,14474,
1.1375,14473,
1.14,14470,
1.1425,14476,
1.145,14476,
1.1475,14466,
1.15,14478,
1.1525,14479,
1.155,14477,
1.1575,14475,
1.16,14472,
1.1625,14468,
1.165,14469,
1.1675,14461,
1.17,14461,
1.1725,14461,
1.175,14471,
1.1775,14461,
1.18,14462,
1.1825,14466,
1.185,14465,
1.1875,14456,
1.19,14470,
1.1925,14459,
1.195,14457,
1.1975,14460,
1.2,14460,
1.2025,14459,
1.205,14464,
1.2075,14459,
1.21,14460,
1.2125,14457,
1.215,14458,
1.2175,14462,
1.22,14450,
1.2225,14461,
1.225,14454,
1.2275,14459,
1.23,14458,
1.2325,14450,
1.235,14459,
1.2375,14449,
1.24,14453,
1.2425,14449,
1.245,14455,
1.2475,14450,
1.25,14452,
1.2525,14440,
1.255,14454,
1.2575,14458,
1.26,14444,
1.2625,14452,
1.265,14447,
1.2675,14450,
1.27,14446,
1.2725,14446,
1.275,14453,
1.2775,14453,
1.28,14450,
1.2825,14443,
1.285,14443,
1.2875,14445,
1.29,14446,
1.2925,14444,
1.295,14446,
1.2975,14450,
1.3,14448,
1.3025,14448,
1.305,14451,
1.3075,14449,
1.31,14448,
1.3125,14446,
1.315,14446,
1.3175,14439,
1.32,14444,
1.3225,14445,
1.325,14447,
1.3275,14447,
1.33,14446,
1.3325,14442,
1.335,14451,
1.3375,14443,
1.34,14440,
1.3425,14445,
1.345,14440,
1.3475,14446,
1.35,14444,
1.3525,14447,
1.355,14442,
1.3575,14441,
1.36,14450,
1.3625,14440,
1.365,14437,
1.3675,14446,
1.37,14432,
1.3725,14443,
1.375,14450,
1.3775,14442,
1.38,14444,
1.3825,14433,
1.385,14443,
1.3875,14444,
1.39,14444,
1.3925,14441,
1.395,14442,
1.3975,14442,
1.4,14439,
1.4025,14445,
1.405,14442,
1.4075,14444,
1.41,14442,
1.4125,14448,
1.415,14443,
1.4175,14440,
1.42,14446,
1.4225,14444,
1.425,14446,
1.4275,14431,
1.43,14440,
1.4325,14445,
1.435,14441,
1.4375,14443,
1.44,14446,
1.4425,14443,
1.445,14453,
1.4475,14444,
1.45,14445,
1.4525,14445,
1.455,14441,
1.4575,14448,
1.46,14444,
1.4625,14443,
1.465,14442,
1.4675,14445,
1.47,14453,
1.4725,14440,
1.475,14446,
1.4775,14447,
1.48,14447,
1.4825,14441,
1.485,14450,
1.4875,14448,
1.49,14447,
1.4925,14445,
1.495,14447,
1.4975,14449,
1.5,14449,
1.5025,14446,
1.505,14447,
1.5075,14444,
1.51,14448,
1.5125,14447,
1.515,14449,
1.5175,14452,
1.52,14455,
1.5225,14454,
1.525,14452,
1.5275,14445,
1.53,14470,
1.5325,14455,
1.535,14463,
1.5375,14459,
1.54,14455,
1.5425,14454,
1.545,14455,
1.5475,14455,
1.55,14445,
1.5525,14453,
1.555,14454,
1.5575,14454,
1.56,14455,
1.5625,14456,
1.565,14458,
1.5675,14458,
1.57,14455,
1.5725,14458,
1.575,14454,
1.5775,14456,
1.58,14461,
1.5825,14455,
1.585,14460,
1.5875,14461,
1.59,14458,
1.5925,14469,
1.595,14458,
1.5975,14463,
1.6,14455,
1.6025,14452,
1.605,14464,
1.6075,14470,
1.61,14462,
1.6125,14463,
1.615,14469,
1.6175,14461,
1.62,14463,
1.6225,14467,
1.625,14468,
1.6275,14456,
1.63,14465,
1.6325,14461,
1.635,14465,
1.6375,14467,
1.64,14473,
1.6425,14465,
1.645,14457,
1.6475,14461,
1.65,14468,
1.6525,14466,
1.655,14471,
1.6575,14481,
1.66,14468,
1.6625,14466,
1.665,14473,
1.6675,14469,
1.67,14465,
1.6725,14471,
1.675,14474,
1.6775,14464,
1.68,14468,
1.6825,14473,
1.685,14468,
1.6875,14473,
1.69,14469,
1.6925,14466,
1.695,14465,
1.6975,14459,
1.7,14468,
1.7025,14473,
1.705,14467,
1.7075,14471,
1.71,14461,
1.7125,14463,
1.715,14464,
1.7175,14469,
1.72,14467,
1.7225,14457,
1.725,14456,
1.7275,14468,
1.73,14453,
1.7325,14459,
1.735,14455,
1.7375,14459,
1.74,14449,
1.7425,14460,
1.745,14448,
1.7475,14452,
1.75,14451,
1.7525,14444,
1.755,14446,
1.7575,14440,
1.76,14441,
1.7625,14449,
1.765,14443,
1.7675,14439,
1.77,14441,
1.7725,14425,
1.775,14435,
1.7775,14442,
1.78,14429,
1.7825,14426,
1.785,14427,
1.7875,14433,
1.79,14433,
1.7925,14431,
1.795,14429,
1.7975,14428,
1.8,14423,
1.8025,14417,
1.805,14428,
1.8075,14426,
1.81,14420,
1.8125,14425,
1.815,14425,
1.8175,14411,
1.82,14416,
1.8225,14420,
1.825,14415,
1.8275,14426,
1.83,14414,
1.8325,14416,
1.835,14413,
1.8375,14414,
1.84,14411,
1.8425,14415,
1.845,14404,
1.8475,14406,
1.85,14408,
1.8525,14408,
1.855,14403,
1.8575,14404,
1.86,14407,
1.8625,14408,
1.865,14404,
1.8675,14406,
1.87,14404,
1.8725,14399,
1.875,14406,
1.8775,14398,
1.88,14401,
1.8825,14400,
1.885,14397,
1.8875,14396,
1.89,14393,
1.8925,14389,
1.895,14394,
1.8975,14398,
1.9,14396,
1.9025,14392,
1.905,14393,
1.9075,14404,
1.91,14396,
1.9125,14400,
1.915,14390,
1.9175,14393,
1.92,14398,
1.9225,14389,
1.925,14386,
1.9275,14388,
1.93,14391,
1.9325,14390,
1.935,14393,
1.9375,14391,
1.94,14387,
1.9425,14389,
1.945,14387,
1.9475,14385,
1.95,14382,
1.9525,14385,
1.955,14383,
1.9575,14388,
1.96,14386,
1.9625,14388,
1.965,14386,
1.9675,14388,
1.97,14379,
1.9725,14382,
1.975,14379,
1.9775,14382,
1.98,14383,
1.9825,14381,
1.985,14382,
1.9875,14375,
1.99,14382,
1.9925,14381,
1.995,14379,
1.9975,14390,
2,14377,
2.0025,14379,
2.005,14381,
2.0075,14378,
2.01,14374,
2.0125,14391,
2.015,14381,
2.0175,14377,
2.02,14376,
2.0225,14376,
2.025,14374,
2.0275,14379,
2.03,14375,
2.0325,14378,
2.035,14378,
2.0375,14377,
2.04,14379,
2.0425,14377,
2.045,14378,
2.0475,14377,
2.05,14378,
2.0525,14373,
2.055,14375,
2.0575,14373,
2.06,14372,
2.0625,14376,
2.065,14371,
2.0675,14377,
2.07,14372,
2.0725,14371,
2.075,14373,
2.0775,14369,
2.08,14370,
2.0825,14379,
2.085,14379,
2.0875,14376,
2.09,14378,
2.0925,14373,
2.095,14377,
2.0975,14377,
2.1,14380,
2.1025,14370,
2.105,14374,
2.1075,14377,
2.11,14373,
2.1125,14370,
2.115,14371,
2.1175,14382,
2.12,14375,
2.1225,14383,
2.125,14385,
2.1275,14377,
2.13,14380,
2.1325,14370,
2.135,14375,
2.1375,14382,
2.14,14377,
2.1425,14375,
2.145,14377,
2.1475,14375,
2.15,14373,
2.1525,14378,
2.155,14379,
2.1575,14375,
2.16,14383,
2.1625,14378,
2.165,14377,
2.1675,14383,
2.17,14382,
2.1725,14379,
2.175,14386,
2.1775,14379,
2.18,14379,
2.1825,14380,
2.185,14383,
2.1875,14378,
2.19,14382,
2.1925,14378,
2.195,14386,
2.1975,14386,
2.2,14380,
2.2025,14382,
2.205,14388,
2.2075,14384,
2.21,14392,
2.2125,14386,
2.215,14382,
2.2175,14382,
2.22,14387,
2.2225,14384,
2.225,14382,
2.2275,14388,
2.23,14388,
2.2325,14384,
2.235,14386,
2.2375,14381,
2.24,14381,
2.2425,14389,
2.245,14385,
2.2475,14387,
2.25,14387,
2.2525,14391,
2.255,14390,
2.2575,14395,
2.26,14397,
2.2625,14391,
2.265,14391,
2.2675,14388,
2.27,14388,
2.2725,14389,
2.275,14378,
2.2775,14389,
2.28,14386,
2.2825,14393,
2.285,14391,
2.2875,14398,
2.29,14393,
2.2925,14403,
2.295,14405,
2.2975,14394,
2.3,14397,
2.3025,14395,
2.305,14398,
2.3075,14395,
2.31,14400,
2.3125,14397,
2.315,14400,
2.3175,14406,
2.32,14404,
2.3225,14401,
2.325,14398,
2.3275,14394,
2.33,14399,
2.3325,14403,
2.335,14400,
2.3375,14398,
2.34,14396,
2.3425,14397,
2.345,14401,
2.3475,14401,
2.35,14405,
2.3525,14405,
2.355,14396,
2.3575,14407,
2.36,14398,
2.3625,14403,
2.365,14409,
2.3675,14419,
2.37,14406,
2.3725,14417,
2.375,14405,
2.3775,14406,
2.38,14413,
2.3825,14410,
2.385,14409,
2.3875,14407,
2.39,14419,
2.3925,14411,
2.395,14414,
2.3975,14412,
2.4,14416,
2.4025,14415,
2.405,14411,
2.4075,14411,
2.41,14412,
2.4125,14406,
2.415,14414,
2.4175,14413,
2.42,14406,
2.4225,14405,
2.425,14410,
2.4275,14408,
2.43,14405,
2.4325,14401,
2.435,14393,
2.4375,14408,
2.44,14397,
2.4425,14390,
2.445,14394,
2.4475,14391,
2.45,14398,
2.4525,14387,
2.455,14393,
2.4575,14386,
2.46,14393,
2.4625,14398,
2.465,14396,
2.4675,14389,
2.47,14381,
2.4725,14387,
2.475,14388,
2.4775,14380,
2.48,14382,
2.4825,14380,
2.485,14381,
2.4875,14380,
2.49,14377,
2.4925,14370,
2.495,14377,
2.4975,14371,
2.5,14372,
2.5025,14367,
2.505,14363,
2.5075,14373,
2.51,14367,
2.5125,14357,
2.515,14369,
2.5175,14366,
2.52,14363,
2.5225,14360,
2.525,14364,
2.5275,14359,
2.53,14360,
2.5325,14360,
2.535,14352,
2.5375,14355,
2.54,14356,
2.5425,14355,
2.545,14359,
2.5475,14355,
2.55,14368,
2.5525,14357,
2.555,14350,
2.5575,14354,
2.56,14353,
2.5625,14350,
2.565,14349,
2.5675,14347,
2.57,14350,
2.5725,14346,
2.575,14347,
2.5775,14352,
2.58,14342,
2.5825,14347,
2.585,14337,
2.5875,14343,
2.59,14343,
2.5925,14345,
2.595,14341,
2.5975,14346,
2.6,14349,
2.6025,14338,
2.605,14344,
2.6075,14342,
2.61,14350,
2.6125,14338,
2.615,14347,
2.6175,14343,
2.62,14343,
2.6225,14342,
2.625,14338,
2.6275,14346,
2.63,14341,
2.6325,14341,
2.635,14352,
2.6375,14339,
2.64,14343,
2.6425,14339,
2.645,14337,
2.6475,14333,
2.65,14335,
2.6525,14336,
2.655,14331,
2.6575,14332,
2.66,14336,
2.6625,14342,
2.665,14342,
2.6675,14342,
2.67,14340,
2.6725,14332,
2.675,14342,
2.6775,14342,
2.68,14333,
2.6825,14338,
2.685,14336,
2.6875,14339,
2.69,14340,
2.6925,14334,
2.695,14334,
2.6975,14335,
2.7,14325,
2.7025,14334,
2.705,14341,
2.7075,14332,
2.71,14333,
2.7125,14333,
2.715,14343,
2.7175,14332,
2.72,14342,
2.7225,14329,
2.725,14338,
2.7275,14338,
2.73,14331,
2.7325,14341,
2.735,14330,
2.7375,14332,
2.74,14332,
2.7425,14332,
2.745,14338,
2.7475,14331,
2.75,14337,
2.7525,14327,
2.755,14328,
2.7575,14331,
2.76,14327,
2.7625,14342,
2.765,14329,
2.7675,14332,
2.77,14334,
2.7725,14340,
2.775,14331,
2.7775,14339,
2.78,14331,
2.7825,14337,
2.785,14330,
2.7875,14331,
2.79,14336,
2.7925,14332,
2.795,14333,
2.7975,14331,
2.8,14331,
2.8025,14333,
2.805,14334,
2.8075,14330,
2.81,14335,
2.8125,14335,
2.815,14336,
2.8175,14331,
2.82,14330,
2.8225,14327,
2.825,14330,
2.8275,14333,
2.83,14333,
2.8325,14333,
2.835,14339,
2.8375,14333,
2.84,14330,
2.8425,14340,
2.845,14330,
2.8475,14339,
2.85,14339,
2.8525,14336,
2.855,14338,
2.8575,14339,
2.86,14336,
2.8625,14340,
2.865,14333,
2.8675,14328,
2.87,14340,
2.8725,14339,
2.875,14340,
2.8775,14336,
2.88,14337,
2.8825,14334,
2.885,14329,
2.8875,14336,
2.89,14340,
2.8925,14336,
2.895,14336,
2.8975,14338,
2.9,14330,
2.9025,14339,
2.905,14331,
2.9075,14343,
2.91,14326,
2.9125,14339,
2.915,14336,
2.9175,14336,
2.92,14337,
2.9225,14337,
2.925,14334,
2.9275,14334,
2.93,14334,
2.9325,14351,
2.935,14336,
2.9375,14336,
2.94,14340,
2.9425,14340,
2.945,14336,
2.9475,14329,
2.95,14334,
2.9525,14336,
2.955,14340,
2.9575,14340,
2.96,14330,
2.9625,14339,
2.965,14332,
2.9675,14335,
2.97,14338,
2.9725,14336,
2.975,14336,
2.9775,14341,
2.98,14342,
2.9825,14347,
2.985,14335,
2.9875,14343,
2.99,14341,
2.9925,14341,
2.995,14336,
2.9975,14340,
3,14343,
3.0025,14337,
3.005,14344,
3.0075,14335,
3.01,14333,
3.0125,14337,
3.015,14344,
3.0175,14338,
3.02,14345,
3.0225,14339,
3.025,14341,
3.0275,14344,
3.03,14340,
3.0325,14345,
3.035,14342,
3.0375,14341,
3.04,14344,
3.0425,14346,
3.045,14341,
3.0475,14344,
3.05,14344,
3.0525,14347,
3.055,14341,
3.0575,14342,
3.06,14342,
3.0625,14342,
3.065,14360,
3.0675,14352,
3.07,14347,
3.0725,14344,
3.075,14348,
3.0775,14345,
3.08,14348,
3.0825,14341,
3.085,14351,
3.0875,14345,
3.09,14350,
3.0925,14353,
3.095,14349,
3.0975,14347,
3.1,14352,
3.1025,14356,
3.105,14351,
3.1075,14351,
3.11,14342,
3.1125,14340,
3.115,14351,
3.1175,14350,
3.12,14351,
3.1225,14350,
3.125,14346,
3.1275,14345,
3.13,14347,
3.1325,14341,
3.135,14346,
3.1375,14344,
3.14,14342,
3.1425,14342,
3.145,14347,
3.1475,14336,
3.15,14344,
3.1525,14335,
3.155,14329,
3.1575,14336,
3.16,14323,
3.1625,14330,
3.165,14336,
3.1675,14330,
3.17,14320,
3.1725,14328,
3.175,14322,
3.1775,14322,
3.18,14328,
3.1825,14311,
3.185,14319,
3.1875,14323,
3.19,14318,
3.1925,14316,
3.195,14317,
3.1975,14305,
3.2,14317,
3.2025,14309,
3.205,14311,
3.2075,14305,
3.21,14299,
3.2125,14300,
3.215,14301,
3.2175,14304,
3.22,14301,
3.2225,14302,
3.225,14294,
3.2275,14299,
3.23,14314,
3.2325,14297,
3.235,14292,
3.2375,14293,
3.24,14291,
3.2425,14289,
3.245,14286,
3.2475,14289,
3.25,14291,
3.2525,14291,
3.255,14280,
3.2575,14294,
3.26,14284,
3.2625,14284,
3.265,14283,
3.2675,14276,
3.27,14276,
3.2725,14278,
3.275,14277,
3.2775,14276,
3.28,14281,
3.2825,14273,
3.285,14284,
3.2875,14275,
3.29,14274,
3.2925,14276,
3.295,14276,
3.2975,14277,
3.3,14270,
3.3025,14271,
3.305,14273,
3.3075,14272,
3.31,14263,
3.3125,14274,
3.315,14279,
3.3175,14265,
3.32,14272,
3.3225,14271,
3.325,14266,
3.3275,14269,
3.33,14272,
3.3325,14270,
3.335,14275,
3.3375,14266,
3.34,14265,
3.3425,14257,
3.345,14261,
3.3475,14264,
3.35,14260,
3.3525,14268,
3.355,14266,
3.3575,14266,
3.36,14263,
3.3625,14265,
3.365,14265,
3.3675,14260,
3.37,14259,
3.3725,14258,
3.375,14267,
3.3775,14260,
3.38,14260,
3.3825,14254,
3.385,14264,
3.3875,14257,
3.39,14261,
3.3925,14255,
3.395,14254,
3.3975,14261,
3.4,14261,
3.4025,14255,
3.405,14256,
3.4075,14258,
3.41,14256,
3.4125,14252,
3.415,14255,
3.4175,14254,
3.42,14260,
3.4225,14253,
3.425,14246,
3.4275,14254,
3.43,14258,
3.4325,14257,
3.435,14248,
3.4375,14250,
3.44,14259,
3.4425,14255,
3.445,14253,
3.4475,14253,
3.45,14254,
3.4525,14254,
3.455,14259,
3.4575,14251,
3.46,14260,
3.4625,14251,
3.465,14247,
3.4675,14250,
3.47,14252,
3.4725,14243,
3.475,14247,
3.4775,14252,
3.48,14253,
3.4825,14246,
3.485,14255,
3.4875,14244,
3.49,14254,
3.4925,14247,
3.495,14249,
3.4975,14249,
3.5,14247,
3.5025,14250,
3.505,14256,
3.5075,14249,
3.51,14248,
3.5125,14251,
3.515,14247,
3.5175,14248,
3.52,14248,
3.5225,14255,
3.525,14258,
3.5275,14243,
3.53,14251,
3.5325,14255,
3.535,14253,
3.5375,14257,
3.54,14250,
3.5425,14252,
3.545,14243,
3.5475,14254,
3.55,14248,
3.5525,14251,
3.555,14253,
3.5575,14251,
3.56,14246,
3.5625,14253,
3.565,14261,
3.5675,14260,
3.57,14261,
3.5725,14256,
3.575,14262,
3.5775,14254,
3.58,14256,
3.5825,14254,
3.585,14258,
3.5875,14247,
3.59,14256,
3.5925,14256,
3.595,14257,
3.5975,14258,
3.6,14254,
3.6025,14253,
3.605,14250,
3.6075,14266,
3.61,14261,
3.6125,14262,
3.615,14260,
3.6175,14254,
3.62,14265,
3.6225,14269,
3.625,14264,
3.6275,14261,
3.63,14263,
3.6325,14263,
3.635,14264,
3.6375,14265,
3.64,14259,
3.6425,14270,
3.645,14266,
3.6475,14267,
3.65,14269,
3.6525,14267,
3.655,14278,
3.6575,14269,
3.66,14261,
3.6625,14274,
3.665,14270,
3.6675,14270,
3.67,14272,
3.6725,14272,
3.675,14276,
3.6775,14271,
3.68,14273,
3.6825,14269,
3.685,14270,
3.6875,14270,
3.69,14273,
3.6925,14268,
3.695,14273,
3.6975,14274,
3.7,14273,
3.7025,14280,
3.705,14280,
3.7075,14280,
3.71,14279,
3.7125,14281,
3.715,14284,
3.7175,14278,
3.72,14284,
3.7225,14279,
3.725,14279,
3.7275,14283,
3.73,14283,
3.7325,14276,
3.735,14281,
3.7375,14283,
3.74,14296,
3.7425,14282,
3.745,14283,
3.7475,14282,
3.75,14291,
3.7525,14289,
3.755,14290,
3.7575,14294,
3.76,14293,
3.7625,14285,
3.765,14289,
3.7675,14293,
3.77,14294,
3.7725,14289,
3.775,14297,
3.7775,14287,
3.78,14288,
3.7825,14301,
3.785,14288,
3.7875,14305,
3.79,14292,
3.7925,14295,
3.795,14294,
3.7975,14297,
3.8,14294,
3.8025,14298,
3.805,14303,
3.8075,14303,
3.81,14309,
3.8125,14308,
3.815,14299,
3.8175,14302,
3.82,14307,
3.8225,14301,
3.825,14302,
3.8275,14302,
3.83,14301,
3.8325,14296,
3.835,14308,
3.8375,14305,
3.84,14308,
3.8425,14297,
3.845,14299,
3.8475,14300,
3.85,14301,
3.8525,14302,
3.855,14300,
3.8575,14306,
3.86,14295,
3.8625,14297,
3.865,14295,
3.8675,14300,
3.87,14288,
3.8725,14293,
3.875,14289,
3.8775,14291,
3.88,14291,
3.8825,14289,
3.885,14292,
3.8875,14287,
3.89,14283,
3.8925,14283,
3.895,14280,
3.8975,14279,
3.9,14283,
3.9025,14278,
3.905,14279,
3.9075,14277,
3.91,14278,
3.9125,14269,
3.915,14275,
3.9175,14268,
3.92,14272,
3.9225,14266,
3.925,14272,
3.9275,14269,
3.93,14271,
3.9325,14267,
3.935,14263,
3.9375,14266,
3.94,14264,
3.9425,14262,
3.945,14257,
3.9475,14259,
3.95,14251,
3.9525,14269,
3.955,14264,
3.9575,14259,
3.96,14259,
3.9625,14260,
3.965,14261,
3.9675,14252,
3.97,14257,
3.9725,14256,
3.975,14257,
3.9775,14256,
3.98,14251,
3.9825,14251,
3.985,14256,
3.9875,14253,
3.99,14250,
3.9925,14251,
3.995,14254,
3.9975,14247,
4,14250,
4.0025,14249,
4.005,14253,
4.0075,14250,
4.01,14245,
4.0125,14244,
4.015,14244,
4.0175,14244,
4.02,14250,
4.0225,14248,
4.025,14243,
4.0275,14243,
4.03,14247,
4.0325,14245,
4.035,14241,
4.0375,14250,
4.04,14244,
4.0425,14237,
4.045,14243,
4.0475,14240,
4.05,14240,
4.0525,14241,
4.055,14251,
4.0575,14245,
4.06,14243,
4.0625,14241,
4.065,14236,
4.0675,14245,
4.07,14240,
4.0725,14239,
4.075,14239,
4.0775,14241,
4.08,14248,
4.0825,14242,
4.085,14238,
4.0875,14249,
4.09,14246,
4.0925,14239,
4.095,14241,
4.0975,14241,
4.1,14241,
4.1025,14238,
4.105,14242,
4.1075,14243,
4.11,14240,
4.1125,14238,
4.115,14237,
4.1175,14242,
4.12,14242,
4.1225,14253,
4.125,14237,
4.1275,14236,
4.13,14244,
4.1325,14238,
4.135,14238,
4.1375,14246,
4.14,14241,
4.1425,14248,
4.145,14243,
4.1475,14244,
4.15,14242,
4.1525,14241,
4.155,14248,
4.1575,14240,
4.16,14243,
4.1625,14243,
4.165,14234,
4.1675,14233,
4.17,14251,
4.1725,14237,
4.175,14244,
4.1775,14244,
4.18,14241,
4.1825,14242,
4.185,14240,
4.1875,14242,
4.19,14242,
4.1925,14246,
4.195,14242,
4.1975,14245,
4.2,14249,
4.2025,14239,
4.205,14243,
4.2075,14253,
4.21,14241,
4.2125,14242,
4.215,14242,
4.2175,14244,
4.22,14238,
4.2225,14245,
4.225,14252,
4.2275,14246,
4.23,14243,
4.2325,14242,
4.235,14247,
4.2375,14250,
4.24,14245,
4.2425,14250,
4.245,14250,
4.2475,14246,
4.25,14254,
4.2525,14242,
4.255,14248,
4.2575,14248,
4.26,14247,
4.2625,14252,
4.265,14251,
4.2675,14251,
4.27,14246,
4.2725,14248,
4.275,14256,
4.2775,14256,
4.28,14257,
4.2825,14263,
4.285,14258,
4.2875,14254,
4.29,14252,
4.2925,14261,
4.295,14262,
4.2975,14262,
4.3,14260,
4.3025,14254,
4.305,14256,
4.3075,14254,
4.31,14262,
4.3125,14258,
4.315,14263,
4.3175,14262,
4.32,14263,
4.3225,14261,
4.325,14260,
4.3275,14259,
4.33,14269,
4.3325,14269,
4.335,14267,
4.3375,14265,
4.34,14265,
4.3425,14258,
4.345,14268,
4.3475,14266,
4.35,14274,
4.3525,14265,
4.355,14267,
4.3575,14268,
4.36,14265,
4.3625,14270,
4.365,14270,
4.3675,14271,
4.37,14277,
4.3725,14275,
4.375,14265,
4.3775,14277,
4.38,14279,
4.3825,14278,
4.385,14274,
4.3875,14269,
4.39,14278,
4.3925,14275,
4.395,14276,
4.3975,14283,
4.4,14279,
4.4025,14278,
4.405,14275,
4.4075,14283,
4.41,14284,
4.4125,14283,
4.415,14290,
4.4175,14277,
4.42,14293,
4.4225,14290,
4.425,14289,
4.4275,14280,
4.43,14284,
4.4325,14293,
4.435,14280,
4.4375,14293,
4.44,14292,
4.4425,14291,
4.445,14299,
4.4475,14292,
4.45,14297,
4.4525,14286,
4.455,14295,
4.4575,14296,
4.46,14297,
4.4625,14298,
4.465,14291,
4.4675,14286,
4.47,14295,
4.4725,14297,
4.475,14293,
4.4775,14305,
4.48,14299,
4.4825,14298,
4.485,14300,
4.4875,14305,
4.49,14298,
4.4925,14304,
4.495,14306,
4.4975,14298,
4.5,14302,
4.5025,14303,
4.505,14312,
4.5075,14304,
4.51,14307,
4.5125,14313,
4.515,14309,
4.5175,14309,
4.52,14312,
4.5225,14317,
4.525,14313,
4.5275,14314,
4.53,14316,
4.5325,14319,
4.535,14314,
4.5375,14317,
4.54,14315,
4.5425,14315,
4.545,14317,
4.5475,14314,
4.55,14315,
4.5525,14326,
4.555,14318,
4.5575,14318,
4.56,14323,
4.5625,14323,
4.565,14317,
4.5675,14321,
4.57,14323,
4.5725,14321,
4.575,14323,
4.5775,14325,
4.58,14321,
4.5825,14328,
4.585,14327,
4.5875,14324,
4.59,14328,
4.5925,14324,
4.595,14317,
4.5975,14316,
4.6,14316,
4.6025,14314,
4.605,14314,
4.6075,14315,
4.61,14312,
4.6125,14302,
4.615,14315,
4.6175,14306,
4.62,14310,
4.6225,14308,
4.625,14311,
4.6275,14305,
4.63,14301,
4.6325,14308,
4.635,14302,
4.6375,14303,
4.64,14305,
4.6425,14297,
4.645,14301,
4.6475,14302,
4.65,14301,
4.6525,14303,
4.655,14299,
4.6575,14291,
4.66,14299,
4.6625,14304,
4.665,14293,
4.6675,14290,
4.67,14301,
4.6725,14291,
4.675,14296,
4.6775,14284,
4.68,14292,
4.6825,14284,
4.685,14292,
4.6875,14283,
4.69,14285,
4.6925,14286,
4.695,14286,
4.6975,14283,
4.7,14290,
4.7025,14283,
4.705,14285,
4.7075,14276,
4.71,14287,
4.7125,14275,
4.715,14282,
4.7175,14278,
4.72,14285,
4.7225,14278,
4.725,14282,
4.7275,14281,
4.73,14279,
4.7325,14281,
4.735,14278,
4.7375,14282,
4.74,14281,
4.7425,14277,
4.745,14277,
4.7475,14277,
4.75,14273,
4.7525,14276,
4.755,14278,
4.7575,14272,
4.76,14278,
4.7625,14277,
4.765,14278,
4.7675,14285,
4.77,14278,
4.7725,14268,
4.775,14276,
4.7775,14281,
4.78,14275,
4.7825,14276,
4.785,14279,
4.7875,14271,
4.79,14277,
4.7925,14271,
4.795,14269,
4.7975,14276,
4.8,14275,
4.8025,14274,
4.805,14278,
4.8075,14275,
4.81,14271,
4.8125,14273,
4.815,14280,
4.8175,14277,
4.82,14275,
4.8225,14271,
4.825,14276,
4.8275,14278,
4.83,14271,
4.8325,14272,
4.835,14282,
4.8375,14275,
4.84,14279,
4.8425,14275,
4.845,14281,
4.8475,14277,
4.85,14265,
4.8525,14275,
4.855,14277,
4.8575,14269,
4.86,14276,
4.8625,14275,
4.865,14276,
4.8675,14277,
4.87,14272,
4.8725,14275,
4.875,14275,
4.8775,14276,
4.88,14280,
4.8825,14283,
4.885,14273,
4.8875,14283,
4.89,14279,
4.8925,14278,
4.895,14280,
4.8975,14274,
4.9,14272,
4.9025,14277,
4.905,14277,
4.9075,14276,
4.91,14281,
4.9125,14275,
4.915,14279,
4.9175,14288,
4.92,14276,
4.9225,14283,
4.925,14273,
4.9275,14284,
4.93,14281,
4.9325,14282,
4.935,14288,
4.9375,14276,
4.94,14279,
4.9425,14281,
4.945,14283,
4.9475,14289,
4.95,14277,
4.9525,14281,
4.955,14293,
4.9575,14285,
4.96,14291,
4.9625,14280,
4.965,14291,
4.9675,14287,
4.97,14289,
4.9725,14290,
4.975,14289,
4.9775,14285,
4.98,14288,
4.9825,14290,
4.985,14288,
4.9875,14289,
4.99,14295,
4.9925,14288,
4.995,14287,
4.9975,14287,
5,14291,
5.0025,14296,
5.005,14292,
5.0075,14296,
5.01,14296,
5.0125,14286,
5.015,14296,
5.0175,14298,
5.02,14294,
5.0225,14298,
5.025,14293,
5.0275,14295,
5.03,14294,
5.0325,14292,
5.035,14294,
5.0375,14305,
5.04,14302,
5.0425,14297,
5.045,14305,
5.0475,14299,
5.05,14301,
5.0525,14314,
5.055,14312,
5.0575,14313,
5.06,14298,
5.0625,14305,
5.065,14296,
5.0675,14306,
5.07,14306,
5.0725,14310,
5.075,14315,
5.0775,14318,
5.08,14310,
5.0825,14308,
5.085,14309,
5.0875,14313,
5.09,14312,
5.0925,14309,
5.095,14305,
5.0975,14310,
5.1,14316,
5.1025,14317,
5.105,14319,
5.1075,14319,
5.11,14317,
5.1125,14310,
5.115,14332,
5.1175,14324,
5.12,14325,
5.1225,14326,
5.125,14328,
5.1275,14321,
5.13,14330,
5.1325,14323,
5.135,14323,
5.1375,14322,
5.14,14328,
5.1425,14330,
5.145,14328,
5.1475,14333,
5.15,14333,
5.1525,14327,
5.155,14326,
5.1575,14334,
5.16,14331,
5.1625,14333,
5.165,14338,
5.1675,14332,
5.17,14331,
5.1725,14341,
5.175,14342,
5.1775,14339,
5.18,14336,
5.1825,14342,
5.185,14340,
5.1875,14340,
5.19,14336,
5.1925,14339,
5.195,14342,
5.1975,14344,
5.2,14351,
5.2025,14343,
5.205,14347,
5.2075,14353,
5.21,14344,
5.2125,14353,
5.215,14349,
5.2175,14344,
5.22,14348,
5.2225,14352,
5.225,14357,
5.2275,14363,
5.23,14356,
5.2325,14349,
5.235,14350,
5.2375,14355,
5.24,14356,
5.2425,14360,
5.245,14359,
5.2475,14361,
5.25,14360,
5.2525,14365,
5.255,14363,
5.2575,14365,
5.26,14361,
5.2625,14361,
5.265,14365,
5.2675,14371,
5.27,14363,
5.2725,14369,
5.275,14367,
5.2775,14373,
5.28,14368,
5.2825,14371,
5.285,14372,
5.2875,14372,
5.29,14372,
5.2925,14368,
5.295,14371,
5.2975,14367,
5.3,14382,
5.3025,14380,
5.305,14375,
5.3075,14382,
5.31,14385,
5.3125,14391,
5.315,14383,
5.3175,14379,
5.32,14381,
5.3225,14379,
5.325,14385,
5.3275,14382,
5.33,14385,
5.3325,14382,
5.335,14390,
5.3375,14383,
5.34,14377,
5.3425,14387,
5.345,14374,
5.3475,14376,
5.35,14384,
5.3525,14383,
5.355,14384,
5.3575,14380,
5.36,14382,
5.3625,14376,
5.365,14380,
5.3675,14375,
5.37,14378,
5.3725,14379,
5.375,14373,
5.3775,14375,
5.38,14372,
5.3825,14375,
5.385,14375,
5.3875,14372,
5.39,14368,
5.3925,14370,
5.395,14369,
5.3975,14366,
5.4,14362,
5.4025,14369,
5.405,14362,
5.4075,14356,
5.41,14361,
5.4125,14367,
5.415,14354,
5.4175,14356,
5.42,14358,
5.4225,14358,
5.425,14361,
5.4275,14360,
5.43,14363,
5.4325,14348,
5.435,14357,
5.4375,14356,
5.44,14368,
5.4425,14351,
5.445,14354,
5.4475,14349,
5.45,14354,
5.4525,14354,
5.455,14355,
5.4575,14344,
5.46,14358,
5.4625,14361,
5.465,14345,
5.4675,14351,
5.47,14349,
5.4725,14354,
5.475,14339,
5.4775,14349,
5.48,14352,
5.4825,14351,
5.485,14356,
5.4875,14344,
5.49,14347,
5.4925,14345,
5.495,14340,
5.4975,14354,
5.5,14345,
5.5025,14346,
5.505,14351,
5.5075,14354,
5.51,14348,
5.5125,14352,
5.515,14353,
5.5175,14357,
5.52,14343,
5.5225,14351,
5.525,14358,
5.5275,14345,
5.53,14344,
5.5325,14341,
5.535,14341,
5.5375,14342,
5.54,14346,
5.5425,14347,
5.545,14346,
5.5475,14347,
5.55,14342,
5.5525,14347,
5.555,14348,
5.5575,14353,
5.56,14337,
5.5625,14349,
5.565,14349,
5.5675,14349,
5.57,14344,
5.5725,14350,
5.575,14352,
5.5775,14350,
5.58,14348,
5.5825,14339,
5.585,14351,
5.5875,14346,
5.59,14345,
5.5925,14346,
5.595,14345,
5.5975,14341,
5.6,14346,
5.6025,14347,
5.605,14345,
5.6075,14344,
5.61,14350,
5.6125,14351,
5.615,14351,
5.6175,14345,
5.62,14342,
5.6225,14344,
5.625,14354,
5.6275,14354,
5.63,14347,
5.6325,14348,
5.635,14349,
5.6375,14344,
5.64,14348,
5.6425,14354,
5.645,14345,
5.6475,14349,
5.65,14348,
5.6525,14351,
5.655,14355,
5.6575,14344,
5.66,14349,
5.6625,14354,
5.665,14355,
5.6675,14358,
5.67,14351,
5.6725,14355,
5.675,14348,
5.6775,14354,
5.68,14355,
5.6825,14344,
5.685,14348,
5.6875,14347,
5.69,14346,
5.6925,14350,
5.695,14362,
5.6975,14353,
5.7,14354,
5.7025,14351,
5.705,14351,
5.7075,14356,
5.71,14352,
5.7125,14353,
5.715,14350,
5.7175,14353,
5.72,14352,
5.7225,14361,
5.725,14354,
5.7275,14363,
5.73,14352,
5.7325,14351,
5.735,14351,
5.7375,14359,
5.74,14352,
5.7425,14355,
5.745,14370,
5.7475,14355,
5.75,14356,
5.7525,14357,
5.755,14360,
5.7575,14358,
5.76,14366,
5.7625,14359,
5.765,14358,
5.7675,14363,
5.77,14365,
5.7725,14366,
5.775,14359,
5.7775,14364,
5.78,14370,
5.7825,14362,
5.785,14366,
5.7875,14364,
5.79,14368,
5.7925,14361,
5.795,14365,
5.7975,14363,
5.8,14363,
5.8025,14366,
5.805,14375,
5.8075,14375,
5.81,14371,
5.8125,14375,
5.815,14371,
5.8175,14369,
5.82,14372,
5.8225,14373,
5.825,14377,
5.8275,14366,
5.83,14374,
5.8325,14371,
5.835,14376,
5.8375,14379,
5.84,14369,
5.8425,14373,
5.845,14379,
5.8475,14371,
5.85,14379,
5.8525,14374,
5.855,14372,
5.8575,14381,
5.86,14380,
5.8625,14376,
5.865,14384,
5.8675,14383,
5.87,14378,
5.8725,14380,
5.875,14383,
5.8775,14387,
5.88,14383,
5.8825,14387,
5.885,14383,
5.8875,14388,
5.89,14388,
5.8925,14389,
5.895,14388,
5.8975,14386,
5.9,14386,
5.9025,14391,
5.905,14384,
5.9075,14396,
5.91,14394,
5.9125,14382,
5.915,14389,
5.9175,14397,
5.92,14387,
5.9225,14395,
5.925,14393,
5.9275,14399,
5.93,14388,
5.9325,14390,
5.935,14398,
5.9375,14401,
5.94,14395,
5.9425,14399,
5.945,14395,
5.9475,14396,
5.95,14407,
5.9525,14405,
5.955,14397,
5.9575,14402,
5.96,14401,
5.9625,14401,
5.965,14406,
5.9675,14406,
5.97,14409,
5.9725,14409,
5.975,14406,
5.9775,14415,
5.98,14406,
5.9825,14407,
5.985,14402,
5.9875,14407,
5.99,14399,
5.9925,14414,
5.995,14413,
5.9975,14402,
6,14403,
6.0025,14403,
6.005,14402,
6.0075,14406,
6.01,14402,
6.0125,14405,
6.015,14400,
6.0175,14400,
6.02,14401,
6.0225,14399,
6.025,14400,
6.0275,14403,
6.03,14392,
6.0325,14397,
6.035,14399,
6.0375,14400,
6.04,14399,
6.0425,14398,
6.045,14392,
6.0475,14393,
6.05,14389,
6.0525,14391,
6.055,14389,
6.0575,14384,
6.06,14387,
6.0625,14391,
6.065,14383,
6.0675,14385,
6.07,14384,
6.0725,14380,
6.075,14378,
6.0775,14387,
6.08,14385,
6.0825,14381,
6.085,14378,
6.0875,14383,
6.09,14374,
6.0925,14380,
6.095,14375,
6.0975,14378,
6.1,14373,
6.1025,14377,
6.105,14368,
6.1075,14369,
6.11,14370,
6.1125,14373,
6.115,14373,
6.1175,14369,
6.12,14372,
6.1225,14372,
6.125,14368,
6.1275,14370,
6.13,14373,
6.1325,14369,
6.135,14369,
6.1375,14370,
6.14,14368,
6.1425,14364,
6.145,14372,
6.1475,14363,
6.15,14359,
6.1525,14362,
6.155,14366,
6.1575,14362,
6.16,14360,
6.1625,14372,
6.165,14362,
6.1675,14357,
6.17,14361,
6.1725,14364,
6.175,14364,
6.1775,14362,
6.18,14361,
6.1825,14362,
6.185,14365,
6.1875,14367,
6.19,14360,
6.1925,14361,
6.195,14359,
6.1975,14356,
6.2,14363,
6.2025,14364,
6.205,14358,
6.2075,14364,
6.21,14360,
6.2125,14365,
6.215,14358,
6.2175,14363,
6.22,14360,
6.2225,14359,
6.225,14368,
6.2275,14354,
6.23,14360,
6.2325,14359,
6.235,14361,
6.2375,14357,
6.24,14363,
6.2425,14358,
6.245,14360,
6.2475,14364,
6.25,14360,
6.2525,14357,
6.255,14363,
6.2575,14356,
6.26,14361,
6.2625,14361,
6.265,14370,
6.2675,14362,
6.27,14355,
6.2725,14356,
6.275,14361,
6.2775,14358,
6.28,14363,
6.2825,14350,
6.285,14359,
6.2875,14359,
6.29,14363,
6.2925,14361,
6.295,14368,
6.2975,14360,
6.3,14359,
6.3025,14360,
6.305,14365,
6.3075,14360,
6.31,14361,
6.3125,14355,
6.315,14358,
6.3175,14355,
6.32,14357,
6.3225,14360,
6.325,14355,
6.3275,14367,
6.33,14361,
6.3325,14365,
6.335,14363,
6.3375,14352,
6.34,14361,
6.3425,14354,
6.345,14361,
6.3475,14359,
6.35,14363,
6.3525,14360,
6.355,14358,
6.3575,14365,
6.36,14353,
6.3625,14368,
6.365,14358,
6.3675,14365,
6.37,14365,
6.3725,14358,
6.375,14359,
6.3775,14364,
6.38,14363,
6.3825,14362,
6.385,14364,
6.3875,14367,
6.39,14368,
6.3925,14362,
6.395,14370,
6.3975,14360,
6.4,14366,
6.4025,14369,
6.405,14364,
6.4075,14366,
6.41,14366,
6.4125,14370,
6.415,14373,
6.4175,14375,
6.42,14358,
6.4225,14371,
6.425,14364,
6.4275,14370,
6.43,14377,
6.4325,14370,
6.435,14375,
6.4375,14373,
6.44,14371,
6.4425,14370,
6.445,14372,
6.4475,14370,
6.45,14371,
6.4525,14373,
6.455,14374,
6.4575,14375,
6.46,14380,
6.4625,14379,
6.465,14372,
6.4675,14376,
6.47,14376,
6.4725,14379,
6.475,14376,
6.4775,14377,
6.48,14373,
6.4825,14382,
6.485,14378,
6.4875,14383,
6.49,14384,
6.4925,14383,
6.495,14380,
6.4975,14382,
6.5,14388,
6.5025,14389,
6.505,14383,
6.5075,14381,
6.51,14392,
6.5125,14382,
6.515,14384,
6.5175,14391,
6.52,14386,
6.5225,14381,
6.525,14391,
6.5275,14392,
6.53,14385,
6.5325,14391,
6.535,14388,
6.5375,14396,
6.54,14400,
6.5425,14396,
6.545,14404,
6.5475,14394,
6.55,14401,
6.5525,14399,
6.555,14388,
6.5575,14397,
6.56,14397,
6.5625,14401,
6.565,14397,
6.5675,14403,
6.57,14399,
6.5725,14410,
6.575,14401,
6.5775,14406,
6.58,14407,
6.5825,14408,
6.585,14399,
6.5875,14403,
6.59,14406,
6.5925,14403,
6.595,14409,
6.5975,14400,
6.6,14409,
6.6025,14412,
6.605,14406,
6.6075,14407,
6.61,14413,
6.6125,14409,
6.615,14405,
6.6175,14412,
6.62,14407,
6.6225,14407,
6.625,14409,
6.6275,14414,
6.63,14417,
6.6325,14409,
6.635,14411,
6.6375,14406,
6.64,14409,
6.6425,14409,
6.645,14411,
6.6475,14408,
6.65,14408,
6.6525,14403,
6.655,14414,
6.6575,14406,
6.66,14406,
6.6625,14398,
6.665,14400,
6.6675,14399,
6.67,14395,
6.6725,14398,
6.675,14400,
6.6775,14395,
6.68,14397,
6.6825,14387,
6.685,14392,
6.6875,14390,
6.69,14392,
6.6925,14388,
6.695,14387,
6.6975,14384,
6.7,14381,
6.7025,14385,
6.705,14380,
6.7075,14382,
6.71,14376,
6.7125,14378,
6.715,14384,
6.7175,14375,
6.72,14370,
6.7225,14375,
6.725,14372,
6.7275,14379,
6.73,14371,
6.7325,14370,
6.735,14379,
6.7375,14371,
6.74,14364,
6.7425,14370,
6.745,14362,
6.7475,14374,
6.75,14369,
6.7525,14366,
6.755,14366,
6.7575,14369,
6.76,14366,
6.7625,14365,
6.765,14352,
6.7675,14364,
6.77,14366,
6.7725,14363,
6.775,14361,
6.7775,14361,
6.78,14361,
6.7825,14364,
6.785,14355,
6.7875,14352,
6.79,14365,
6.7925,14359,
6.795,14359,
6.7975,14355,
6.8,14370,
6.8025,14357,
6.805,14360,
6.8075,14360,
6.81,14354,
6.8125,14361,
6.815,14356,
6.8175,14356,
6.82,14352,
6.8225,14352,
6.825,14354,
6.8275,14356,
6.83,14353,
6.8325,14351,
6.835,14347,
6.8375,14350,
6.84,14348,
6.8425,14356,
6.845,14355,
6.8475,14354,
6.85,14353,
6.8525,14350,
6.855,14355,
6.8575,14348,
6.86,14345,
6.8625,14349,
6.865,14350,
6.8675,14352,
6.87,14356,
6.8725,14354,
6.875,14347,
6.8775,14351,
6.88,14353,
6.8825,14348,
6.885,14361,
6.8875,14343,
6.89,14353,
6.8925,14357,
6.895,14340,
6.8975,14354,
6.9,14349,
6.9025,14348,
6.905,14347,
6.9075,14348,
6.91,14349,
6.9125,14348,
6.915,14346,
6.9175,14352,
6.92,14350,
6.9225,14358,
6.925,14353,
6.9275,14351,
6.93,14351,
6.9325,14352,
6.935,14349,
6.9375,14353,
6.94,14350,
6.9425,14344,
6.945,14340,
6.9475,14353,
6.95,14351,
6.9525,14351,
6.955,14351,
6.9575,14355,
6.96,14352,
6.9625,14355,
6.965,14347,
6.9675,14348,
6.97,14353,
6.9725,14349,
6.975,14352,
6.9775,14355,
6.98,14346,
6.9825,14351,
6.985,14356,
6.9875,14346,
6.99,14350,
6.9925,14352,
6.995,14354,
6.9975,14348,
7,14361,
7.0025,14351,
7.005,14353,
7.0075,14352,
7.01,14351,
7.0125,14364,
7.015,14347,
7.0175,14357,
7.02,14351,
7.0225,14350,
7.025,14354,
7.0275,14353,
7.03,14357,
7.0325,14358,
7.035,14355,
7.0375,14360,
7.04,14361,
7.0425,14352,
7.045,14357,
7.0475,14353,
7.05,14355,
7.0525,14355,
7.055,14356,
7.0575,14354,
7.06,14360,
7.0625,14365,
7.065,14357,
7.0675,14362,
7.07,14365,
7.0725,14359,
7.075,14362,
7.0775,14364,
7.08,14355,
7.0825,14359,
7.085,14371,
7.0875,14366,
7.09,14371,
7.0925,14358,
7.095,14369,
7.0975,14376,
7.1,14364,
7.1025,14364,
7.105,14365,
7.1075,14365,
7.11,14369,
7.1125,14367,
7.115,14371,
7.1175,14366,
7.12,14369,
7.1225,14370,
7.125,14367,
7.1275,14369,
7.13,14371,
7.1325,14372,
7.135,14370,
7.1375,14373,
7.14,14375,
7.1425,14375,
7.145,14372,
7.1475,14376,
7.15,14372,
7.1525,14374,
7.155,14378,
7.1575,14375,
7.16,14382,
7.1625,14384,
7.165,14373,
7.1675,14387,
7.17,14379,
7.1725,14375,
7.175,14382,
7.1775,14377,
7.18,14381,
7.1825,14387,
7.185,14382,
7.1875,14383,
7.19,14383,
7.1925,14381,
7.195,14378,
7.1975,14383,
7.2,14390,
7.2025,14393,
7.205,14385,
7.2075,14380,
7.21,14391,
7.2125,14383,
7.215,14385,
7.2175,14386,
7.22,14385,
7.2225,14389,
7.225,14392,
7.2275,14391,
7.23,14396,
7.2325,14389,
7.235,14396,
7.2375,14395,
7.24,14392,
7.2425,14402,
7.245,14392,
7.2475,14390,
7.25,14391,
7.2525,14392,
7.255,14401,
7.2575,14399,
7.26,14401,
7.2625,14387,
7.265,14406,
7.2675,14409,
7.27,14398,
7.2725,14406,
7.275,14404,
7.2775,14398,
7.28,14392,
7.2825,14404,
7.285,14401,
7.2875,14401,
7.29,14400,
7.2925,14400,
7.295,14397,
7.2975,14396,
7.3,14395,
7.3025,14393,
7.305,14389,
7.3075,14391,
7.31,14388,
7.3125,14392,
7.315,14393,
7.3175,14389,
7.32,14402,
7.3225,14385,
7.325,14386,
7.3275,14382,
7.33,14378,
7.3325,14384,
7.335,14386,
7.3375,14383,
7.34,14376,
7.3425,14377,
7.345,14380,
7.3475,14373,
7.35,14371,
7.3525,14380,
7.355,14365,
7.3575,14370,
7.36,14373,
7.3625,14368,
7.365,14366,
7.3675,14367,
7.37,14360,
7.3725,14362,
7.375,14356,
7.3775,14363,
7.38,14360,
7.3825,14362,
7.385,14361,
7.3875,14356,
7.39,14354,
7.3925,14353,
7.395,14353,
7.3975,14354,
7.4,14368,
7.4025,14352,
7.405,14359,
7.4075,14356,
7.41,14350,
7.4125,14352,
7.415,14352,
7.4175,14343,
7.42,14343,
7.4225,14352,
7.425,14353,
7.4275,14343,
7.43,14344,
7.4325,14340,
7.435,14351,
7.4375,14361,
7.44,14347,
7.4425,14346,
7.445,14350,
7.4475,14347,
7.45,14340,
7.4525,14345,
7.455,14346,
7.4575,14343,
7.46,14342,
7.4625,14341,
7.465,14346,
7.4675,14343,
7.47,14339,
7.4725,14339,
7.475,14336,
7.4775,14337,
7.48,14347,
7.4825,14342,
7.485,14348,
7.4875,14340,
7.49,14341,
7.4925,14338,
7.495,14333,
7.4975,14332,
7.5,14342,
7.5025,14330,
7.505,14338,
7.5075,14332,
7.51,14337,
7.5125,14335,
7.515,14336,
7.5175,14338,
7.52,14327,
7.5225,14338,
7.525,14335,
7.5275,14335,
7.53,14338,
7.5325,14337,
7.535,14340,
7.5375,14337,
7.54,14336,
7.5425,14333,
7.545,14328,
7.5475,14330,
7.55,14336,
7.5525,14327,
7.555,14336,
7.5575,14335,
7.56,14337,
7.5625,14332,
7.565,14340,
7.5675,14333,
7.57,14329,
7.5725,14339,
7.575,14332,
7.5775,14337,
7.58,14337,
7.5825,14334,
7.585,14331,
7.5875,14335,
7.59,14340,
7.5925,14334,
7.595,14339,
7.5975,14336,
7.6,14331,
7.6025,14333,
7.605,14342,
7.6075,14347,
7.61,14331,
7.6125,14340,
7.615,14335,
7.6175,14334,
7.62,14334,
7.6225,14333,
7.625,14342,
7.6275,14335,
7.63,14336,
7.6325,14344,
7.635,14336,
7.6375,14331,
7.64,14331,
7.6425,14340,
7.645,14334,
7.6475,14334,
7.65,14346,
7.6525,14333,
7.655,14331,
7.6575,14339,
7.66,14336,
7.6625,14334,
7.665,14340,
7.6675,14343,
7.67,14337,
7.6725,14338,
7.675,14341,
7.6775,14340,
7.68,14338,
7.6825,14340,
7.685,14338,
7.6875,14338,
7.69,14339,
7.6925,14337,
7.695,14335,
7.6975,14341,
7.7,14343,
7.7025,14339,
7.705,14346,
7.7075,14341,
7.71,14338,
7.7125,14339,
7.715,14342,
7.7175,14346,
7.72,14344,
7.7225,14343,
7.725,14343,
7.7275,14341,
7.73,14346,
7.7325,14343,
7.735,14358,
7.7375,14342,
7.74,14350,
7.7425,14351,
7.745,14348,
7.7475,14350,
7.75,14351,
7.7525,14349,
7.755,14355,
7.7575,14360,
7.76,14351,
7.7625,14350,
7.765,14349,
7.7675,14358,
7.77,14358,
7.7725,14350,
7.775,14356,
7.7775,14359,
7.78,14351,
7.7825,14358,
7.785,14354,
7.7875,14360,
7.79,14363,
7.7925,14353,
7.795,14361,
7.7975,14363,
7.8,14366,
7.8025,14359,
7.805,14363,
7.8075,14367,
7.81,14360,
7.8125,14364,
7.815,14364,
7.8175,14363,
7.82,14371,
7.8225,14364,
7.825,14367,
7.8275,14363,
7.83,14371,
7.8325,14364,
7.835,14374,
7.8375,14369,
7.84,14376,
7.8425,14372,
7.845,14376,
7.8475,14372,
7.85,14369,
7.8525,14373,
7.855,14380,
7.8575,14381,
7.86,14376,
7.8625,14376,
7.865,14376,
7.8675,14371,
7.87,14382,
7.8725,14389,
7.875,14387,
7.8775,14386,
7.88,14385,
7.8825,14381,
7.885,14381,
7.8875,14381,
7.89,14388,
7.8925,14381,
7.895,14385,
7.8975,14383,
7.9,14384,
7.9025,14394,
7.905,14399,
7.9075,14385,
7.91,14399,
7.9125,14389,
7.915,14392,
7.9175,14393,
7.92,14394,
7.9225,14397,
7.925,14386,
7.9275,14397,
7.93,14390,
7.9325,14396,
7.935,14402,
7.9375,14394,
7.94,14400,
7.9425,14401,
7.945,14408,
7.9475,14405,
7.95,14404,
7.9525,14400,
7.955,14401,
7.9575,14402,
7.96,14390,
7.9625,14412,
7.965,14399,
7.9675,14412,
7.97,14406,
7.9725,14413,
7.975,14411,
7.9775,14400,
7.98,14402,
7.9825,14405,
7.985,14408,
7.9875,14401,
7.99,14408,
7.9925,14397,
7.995,14408,
7.9975,14404,
8,14398,
8.0025,14395,
8.005,14400,
8.0075,14403,
8.01,14400,
8.0125,14394,
8.015,14394,
8.0175,14402,
8.02,14391,
8.0225,14393,
8.025,14393,
8.0275,14390,
8.03,14394,
8.0325,14392,
8.035,14391,
8.0375,14376,
8.04,14392,
8.0425,14391,
8.045,14383,
8.0475,14386,
8.05,14385,
8.0525,14381,
8.055,14378,
8.0575,14379,
8.06,14374,
8.0625,14377,
8.065,14381,
8.0675,14374,
8.07,14376,
8.0725,14375,
8.075,14380,
8.0775,14380,
8.08,14380,
8.0825,14370,
8.085,14372,
8.0875,14379,
8.09,14370,
8.0925,14366,
8.095,14369,
8.0975,14370,
8.1,14370,
8.1025,14366,
8.105,14370,
8.1075,14373,
8.11,14365,
8.1125,14364,
8.115,14375,
8.1175,14369,
8.12,14367,
8.1225,14366,
8.125,14368,
8.1275,14363,
8.13,14362,
8.1325,14364,
8.135,14354,
8.1375,14364,
8.14,14373,
8.1425,14367,
8.145,14364,
8.1475,14367,
8.15,14359,
8.1525,14365,
8.155,14361,
8.1575,14356,
8.16,14371,
8.1625,14365,
8.165,14355,
8.1675,14367,
8.17,14363,
8.1725,14361,
8.175,14361,
8.1775,14360,
8.18,14364,
8.1825,14362,
8.185,14359,
8.1875,14358,
8.19,14363,
8.1925,14368,
8.195,14363,
8.1975,14358,
8.2,14364,
8.2025,14374,
8.205,14362,
8.2075,14366,
8.21,14370,
8.2125,14365,
8.215,14363,
8.2175,14364,
8.22,14360,
8.2225,14360,
8.225,14364,
8.2275,14360,
8.23,14366,
8.2325,14363,
8.235,14364,
8.2375,14368,
8.24,14365,
8.2425,14371,
8.245,14363,
8.2475,14360,
8.25,14362,
8.2525,14368,
8.255,14364,
8.2575,14371,
8.26,14358,
8.2625,14371,
8.265,14360,
8.2675,14366,
8.27,14360,
8.2725,14365,
8.275,14358,
8.2775,14371,
8.28,14366,
8.2825,14366,
8.285,14364,
8.2875,14370,
8.29,14365,
8.2925,14360,
8.295,14370,
8.2975,14365,
8.3,14371,
8.3025,14366,
8.305,14368,
8.3075,14365,
8.31,14366,
8.3125,14363,
8.315,14364,
8.3175,14371,
8.32,14370,
8.3225,14365,
8.325,14373,
8.3275,14366,
8.33,14368,
8.3325,14373,
8.335,14372,
8.3375,14370,
8.34,14369,
8.3425,14363,
8.345,14373,
8.3475,14374,
8.35,14372,
8.3525,14367,
8.355,14376,
8.3575,14369,
8.36,14374,
8.3625,14373,
8.365,14374,
8.3675,14369,
8.37,14376,
8.3725,14386,
8.375,14378,
8.3775,14376,
8.38,14376,
8.3825,14378,
8.385,14382,
8.3875,14383,
8.39,14379,
8.3925,14377,
8.395,14373,
8.3975,14381,
8.4,14381,
8.4025,14382,
8.405,14380,
8.4075,14378,
8.41,14383,
8.4125,14378,
8.415,14374,
8.4175,14369,
8.42,14375,
8.4225,14389,
8.425,14380,
8.4275,14384,
8.43,14385,
8.4325,14384,
8.435,14386,
8.4375,14395,
8.44,14389,
8.4425,14389,
8.445,14389,
8.4475,14386,
8.45,14391,
8.4525,14389,
8.455,14393,
8.4575,14401,
8.46,14392,
8.4625,14393,
8.465,14396,
8.4675,14390,
8.47,14389,
8.4725,14395,
8.475,14397,
8.4775,14395,
8.48,14391,
8.4825,14400,
8.485,14400,
8.4875,14392,
8.49,14404,
8.4925,14403,
8.495,14403,
8.4975,14401,
8.5,14398,
8.5025,14403,
8.505,14402,
8.5075,14405,
8.51,14402,
8.5125,14409,
8.515,14407,
8.5175,14408,
8.52,14408,
8.5225,14402,
8.525,14411,
8.5275,14410,
8.53,14409,
8.5325,14405,
8.535,14416,
8.5375,14410,
8.54,14409,
8.5425,14424,
8.545,14412,
8.5475,14419,
8.55,14410,
8.5525,14414,
8.555,14418,
8.5575,14419,
8.56,14418,
8.5625,14416,
8.565,14423,
8.5675,14413,
8.57,14414,
8.5725,14429,
8.575,14419,
8.5775,14429,
8.58,14417,
8.5825,14431,
8.585,14423,
8.5875,14432,
8.59,14425,
8.5925,14435,
8.595,14435,
8.5975,14425,
8.6,14433,
8.6025,14432,
8.605,14431,
8.6075,14431,
8.61,14428,
8.6125,14427,
8.615,14433,
8.6175,14435,
8.62,14436,
8.6225,14434,
8.625,14433,
8.6275,14445,
8.63,14432,
8.6325,14435,
8.635,14444,
8.6375,14442,
8.64,14434,
8.6425,14438,
8.645,14437,
8.6475,14433,
8.65,14438,
8.6525,14430,
8.655,14427,
8.6575,14434,
8.66,14432,
8.6625,14437,
8.665,14437,
8.6675,14433,
8.67,14426,
8.6725,14444,
8.675,14429,
8.6775,14431,
8.68,14422,
8.6825,14423,
8.685,14423,
8.6875,14421,
8.69,14422,
8.6925,14423,
8.695,14418,
8.6975,14419,
8.7,14411,
8.7025,14420,
8.705,14419,
8.7075,14412,
8.71,14411,
8.7125,14426,
8.715,14410,
8.7175,14411,
8.72,14408,
8.7225,14409,
8.725,14411,
8.7275,14410,
8.73,14404,
8.7325,14405,
8.735,14409,
8.7375,14408,
8.74,14406,
8.7425,14397,
8.745,14405,
8.7475,14402,
8.75,14399,
8.7525,14403,
8.755,14415,
8.7575,14397,
8.76,14400,
8.7625,14393,
8.765,14395,
8.7675,14400,
8.77,14396,
8.7725,14392,
8.775,14390,
8.7775,14391,
8.78,14398,
8.7825,14391,
8.785,14397,
8.7875,14394,
8.79,14389,
8.7925,14396,
8.795,14391,
8.7975,14400,
8.8,14390,
8.8025,14386,
8.805,14390,
8.8075,14390,
8.81,14383,
8.8125,14394,
8.815,14392,
8.8175,14388,
8.82,14389,
8.8225,14387,
8.825,14392,
8.8275,14391,
8.83,14395,
8.8325,14387,
8.835,14387,
8.8375,14383,
8.84,14399,
8.8425,14385,
8.845,14391,
8.8475,14383,
8.85,14388,
8.8525,14385,
8.855,14393,
8.8575,14393,
8.86,14391,
8.8625,14395,
8.865,14393,
8.8675,14389,
8.87,14388,
8.8725,14383,
8.875,14385,
8.8775,14387,
8.88,14388,
8.8825,14392,
8.885,14393,
8.8875,14395,
8.89,14392,
8.8925,14390,
8.895,14381,
8.8975,14394,
8.9,14388,
8.9025,14394,
8.905,14385,
8.9075,14383,
8.91,14389,
8.9125,14391,
8.915,14393,
8.9175,14393,
8.92,14399,
8.9225,14392,
8.925,14392,
8.9275,14392,
8.93,14388,
8.9325,14390,
8.935,14387,
8.9375,14384,
8.94,14385,
8.9425,14397,
8.945,14390,
8.9475,14393,
8.95,14390,
8.9525,14385,
8.955,14396,
8.9575,14392,
8.96,14390,
8.9625,14392,
8.965,14390,
8.9675,14392,
8.97,14393,
8.9725,14388,
8.975,14399,
8.9775,14405,
8.98,14385,
8.9825,14397,
8.985,14393,
8.9875,14393,
8.99,14396,
8.9925,14396,
8.995,14396,
8.9975,14387,
9,14396,
9.0025,14385,
9.005,14393,
9.0075,14389,
9.01,14401,
9.0125,14394,
9.015,14397,
9.0175,14396,
9.02,14394,
9.0225,14395,
9.025,14394,
9.0275,14391,
9.03,14392,
9.0325,14395,
9.035,14388,
9.0375,14388,
9.04,14394,
9.0425,14395,
9.045,14394,
9.0475,14401,
9.05,14402,
9.0525,14400,
9.055,14396,
9.0575,14402,
9.06,14399,
9.0625,14390,
9.065,14402,
9.0675,14402,
9.07,14400,
9.0725,14403,
9.075,14404,
9.0775,14395,
9.08,14402,
9.0825,14402,
9.085,14404,
9.0875,14405,
9.09,14390,
9.0925,14400,
9.095,14410,
9.0975,14404,
9.1,14402,
9.1025,14403,
9.105,14399,
9.1075,14398,
9.11,14405,
9.1125,14410,
9.115,14406,
9.1175,14409,
9.12,14403,
9.1225,14407,
9.125,14412,
9.1275,14411,
9.13,14409,
9.1325,14411,
9.135,14407,
9.1375,14413,
9.14,14416,
9.1425,14415,
9.145,14411,
9.1475,14413,
9.15,14418,
9.1525,14413,
9.155,14421,
9.1575,14410,
9.16,14421,
9.1625,14415,
9.165,14415,
9.1675,14422,
9.17,14419,
9.1725,14420,
9.175,14417,
9.1775,14413,
9.18,14428,
9.1825,14418,
9.185,14420,
9.1875,14425,
9.19,14420,
9.1925,14419,
9.195,14420,
9.1975,14425,
9.2,14420,
9.2025,14431,
9.205,14425,
9.2075,14422,
9.21,14427,
9.2125,14423,
9.215,14426,
9.2175,14424,
9.22,14423,
9.2225,14428,
9.225,14427,
9.2275,14422,
9.23,14425,
9.2325,14425,
9.235,14427,
9.2375,14419,
9.24,14425,
9.2425,14427,
9.245,14419,
9.2475,14424,
9.25,14424,
9.2525,14422,
9.255,14428,
9.2575,14418,
9.26,14421,
9.2625,14417,
9.265,14426,
9.2675,14413,
9.27,14412,
9.2725,14415,
9.275,14411,
9.2775,14419,
9.28,14405,
9.2825,14410,
9.285,14410,
9.2875,14411,
9.29,14411,
9.2925,14417,
9.295,14398,
9.2975,14412,
9.3,14403,
9.3025,14405,
9.305,14407,
9.3075,14410,
9.31,14399,
9.3125,14390,
9.315,14396,
9.3175,14393,
9.32,14392,
9.3225,14390,
9.325,14387,
9.3275,14389,
9.33,14387,
9.3325,14385,
9.335,14394,
9.3375,14396,
9.34,14395,
9.3425,14381,
9.345,14388,
9.3475,14375,
9.35,14394,
9.3525,14387,
9.355,14385,
9.3575,14390,
9.36,14383,
9.3625,14381,
9.365,14372,
9.3675,14382,
9.37,14389,
9.3725,14385,
9.375,14384,
9.3775,14385,
9.38,14387,
9.3825,14378,
9.385,14381,
9.3875,14383,
9.39,14384,
9.3925,14397,
9.395,14380,
9.3975,14375,
9.4,14380,
9.4025,14368,
9.405,14384,
9.4075,14383,
9.41,14380,
9.4125,14382,
9.415,14382,
9.4175,14376,
9.42,14383,
9.4225,14372,
9.425,14375,
9.4275,14380,
9.43,14381,
9.4325,14383,
9.435,14381,
9.4375,14374,
9.44,14381,
9.4425,14382,
9.445,14381,
9.4475,14381,
9.45,14385,
9.4525,14385,
9.455,14376,
9.4575,14385,
9.46,14381,
9.4625,14367,
9.465,14386,
9.4675,14388,
9.47,14377,
9.4725,14384,
9.475,14382,
9.4775,14392,
9.48,14379,
9.4825,14377,
9.485,14383,
9.4875,14382,
9.49,14385,
9.4925,14376,
9.495,14382,
9.4975,14381,
9.5,14375,
9.5025,14383,
9.505,14376,
9.5075,14381,
9.51,14385,
9.5125,14388,
9.515,14380,
9.5175,14388,
9.52,14381,
9.5225,14386,
9.525,14386,
9.5275,14376,
9.53,14385,
9.5325,14377,
9.535,14384,
9.5375,14385,
9.54,14387,
9.5425,14381,
9.545,14388,
9.5475,14385,
9.55,14387,
9.5525,14388,
9.555,14391,
9.5575,14388,
9.56,14386,
9.5625,14392,
9.565,14382,
9.5675,14385,
9.57,14388,
9.5725,14391,
9.575,14387,
9.5775,14392,
9.58,14385,
9.5825,14389,
9.585,14385,
9.5875,14387,
9.59,14397,
9.5925,14385,
9.595,14390,
9.5975,14388,
9.6,14394,
9.6025,14384,
9.605,14388,
9.6075,14393,
9.61,14392,
9.6125,14393,
9.615,14389,
9.6175,14395,
9.62,14395,
9.6225,14392,
9.625,14390,
9.6275,14395,
9.63,14391,
9.6325,14393,
9.635,14394,
9.6375,14393,
9.64,14386,
9.6425,14393,
9.645,14398,
9.6475,14400,
9.65,14390,
9.6525,14399,
9.655,14392,
9.6575,14395,
9.66,14399,
9.6625,14398,
9.665,14401,
9.6675,14398,
9.67,14397,
9.6725,14398,
9.675,14398,
9.6775,14393,
9.68,14400,
9.6825,14402,
9.685,14398,
9.6875,14400,
9.69,14404,
9.6925,14405,
9.695,14399,
9.6975,14397,
9.7,14403,
9.7025,14404,
9.705,14407,
9.7075,14401,
9.71,14401,
9.7125,14404,
9.715,14407,
9.7175,14404,
9.72,14406,
9.7225,14404,
9.725,14409,
9.7275,14412,
9.73,14408,
9.7325,14418,
9.735,14408,
9.7375,14409,
9.74,14406,
9.7425,14412,
9.745,14422,
9.7475,14421,
9.75,14421,
9.7525,14419,
9.755,14416,
9.7575,14412,
9.76,14419,
9.7625,14414,
9.765,14416,
9.7675,14426,
9.77,14426,
9.7725,14415,
9.775,14417,
9.7775,14419,
9.78,14423,
9.7825,14422,
9.785,14424,
9.7875,14416,
9.79,14425,
9.7925,14427,
9.795,14420,
9.7975,14426,
9.8,14426,
9.8025,14422,
9.805,14424,
9.8075,14420,
9.81,14430,
9.8125,14423,
9.815,14416,
9.8175,14440,
9.82,14418,
9.8225,14422,
9.825,14422,
9.8275,14410,
9.83,14423,
9.8325,14420,
9.835,14418,
9.8375,14425,
9.84,14415,
9.8425,14422,
9.845,14417,
9.8475,14419,
9.85,14415,
9.8525,14404,
9.855,14407,
9.8575,14406,
9.86,14411,
9.8625,14409,
9.865,14405,
9.8675,14407,
9.87,14403,
9.8725,14399,
9.875,14398,
9.8775,14398,
9.88,14398,
9.8825,14392,
9.885,14390,
9.8875,14400,
9.89,14394,
9.8925,14388,
9.895,14388,
9.8975,14391,
9.9,14390,
9.9025,14390,
9.905,14388,
9.9075,14391,
9.91,14383,
9.9125,14377,
9.915,14380,
9.9175,14374,
9.92,14386,
9.9225,14375,
9.925,14374,
9.9275,14385,
9.93,14375,
9.9325,14373,
9.935,14378,
9.9375,14375,
9.94,14376,
9.9425,14372,
9.945,14376,
9.9475,14375,
9.95,14370,
9.9525,14376,
9.955,14370,
9.9575,14368,
9.96,14364,
9.9625,14370,
9.965,14360,
9.9675,14366,
9.97,14366,
9.9725,14361,
9.975,14357,
9.9775,14359,
9.98,14361,
9.9825,14364,
9.985,14359,
9.9875,14360,
9.99,14363,
9.9925,14363,
9.995,14348,
9.9975,14355,
10,14352,
10.0025,14352,
10.005,14354,
10.0075,14359,
10.01,14355,
10.0125,14362,
10.015,14354,
10.0175,14370,
10.02,14359,
10.0225,14356,
10.025,14358,
10.0275,14355,
10.03,14357,
10.0325,14357,
10.035,14348,
10.0375,14352,
10.04,14359,
10.0425,14353,
10.045,14350,
10.0475,14353,
10.05,14350,
10.0525,14350,
10.055,14351,
10.0575,14346,
10.06,14349,
10.0625,14344,
10.065,14353,
10.0675,14344,
10.07,14344,
10.0725,14349,
10.075,14351,
10.0775,14350,
10.08,14347,
10.0825,14348,
10.085,14358,
10.0875,14352,
10.09,14347,
10.0925,14348,
10.095,14359,
10.0975,14355,
10.1,14351,
10.1025,14351,
10.105,14347,
10.1075,14350,
10.11,14349,
10.1125,14344,
10.115,14353,
10.1175,14343,
10.12,14344,
10.1225,14349,
10.125,14345,
10.1275,14349,
10.13,14348,
10.1325,14347,
10.135,14351,
10.1375,14352,
10.14,14349,
10.1425,14345,
10.145,14347,
10.1475,14351,
10.15,14348,
10.1525,14348,
10.155,14346,
10.1575,14344,
10.16,14341,
10.1625,14344,
10.165,14342,
10.1675,14347,
10.17,14349,
10.1725,14348,
10.175,14361,
10.1775,14352,
10.18,14350,
10.1825,14347,
10.185,14346,
10.1875,14353,
10.19,14353,
10.1925,14353,
10.195,14348,
10.1975,14349,
10.2,14354,
10.2025,14354,
10.205,14350,
10.2075,14350,
10.21,14350,
10.2125,14352,
10.215,14352,
10.2175,14347,
10.22,14356,
10.2225,14344,
10.225,14355,
10.2275,14351,
10.23,14352,
10.2325,14354,
10.235,14355,
10.2375,14348,
10.24,14354,
10.2425,14362,
10.245,14355,
10.2475,14352,
10.25,14352,
10.2525,14359,
10.255,14354,
10.2575,14362,
10.26,14360,
10.2625,14356,
10.265,14361,
10.2675,14361,
10.27,14358,
10.2725,14357,
10.275,14359,
10.2775,14355,
10.28,14357,
10.2825,14360,
10.285,14370,
10.2875,14362,
10.29,14368,
10.2925,14360,
10.295,14363,
10.2975,14367,
10.3,14358,
10.3025,14360,
10.305,14367,
10.3075,14361,
10.31,14366,
10.3125,14367,
10.315,14373,
10.3175,14363,
10.32,14364,
10.3225,14372,
10.325,14366,
10.3275,14365,
10.33,14371,
10.3325,14369,
10.335,14368,
10.3375,14372,
10.34,14370,
10.3425,14374,
10.345,14378,
10.3475,14371,
10.35,14378,
10.3525,14374,
10.355,14375,
10.3575,14377,
10.36,14375,
10.3625,14372,
10.365,14382,
10.3675,14374,
10.37,14382,
10.3725,14378,
10.375,14379,
10.3775,14379,
10.38,14380,
10.3825,14385,
10.385,14392,
10.3875,14378,
10.39,14386,
10.3925,14384,
10.395,14385,
10.3975,14379,
10.4,14390,
10.4025,14382,
10.405,14393,
10.4075,14389,
10.41,14381,
10.4125,14396,
10.415,14385,
10.4175,14391,
10.42,14385,
10.4225,14383,
10.425,14391,
10.4275,14392,
10.43,14382,
10.4325,14387,
10.435,14379,
10.4375,14387,
10.44,14389,
10.4425,14380,
10.445,14379,
10.4475,14381,
10.45,14386,
10.4525,14380,
10.455,14383,
10.4575,14381,
10.46,14370,
10.4625,14377,
10.465,14371,
10.4675,14377,
10.47,14375,
10.4725,14364,
10.475,14371,
10.4775,14369,
10.48,14364,
10.4825,14366,
10.485,14360,
10.4875,14367,
10.49,14354,
10.4925,14353,
10.495,14359,
10.4975,14366,
10.5,14354,
10.5025,14349,
10.505,14346,
10.5075,14344,
10.51,14344,
10.5125,14344,
10.515,14347,
10.5175,14345,
10.52,14348,
10.5225,14336,
10.525,14342,
10.5275,14341,
10.53,14338,
10.5325,14339,
10.535,14331,
10.5375,14328,
10.54,14333,
10.5425,14336,
10.545,14330,
10.5475,14328,
10.55,14335,
10.5525,14336,
10.555,14333,
10.5575,14332,
10.56,14331,
10.5625,14323,
10.565,14328,
10.5675,14326,
10.57,14327,
10.5725,14326,
10.575,14325,
10.5775,14316,
10.58,14312,
10.5825,14324,
10.585,14319,
10.5875,14328,
10.59,14319,
10.5925,14320,
10.595,14310,
10.5975,14312,
10.6,14318,
10.6025,14307,
10.605,14315,
10.6075,14318,
10.61,14314,
10.6125,14311,
10.615,14308,
10.6175,14310,
10.62,14313,
10.6225,14314,
10.625,14306,
10.6275,14302,
10.63,14310,
10.6325,14311,
10.635,14312,
10.6375,14304,
10.64,14305,
10.6425,14314,
10.645,14310,
10.6475,14308,
10.65,14306,
10.6525,14303,
10.655,14304,
10.6575,14307,
10.66,14304,
10.6625,14308,
10.665,14301,
10.6675,14312,
10.67,14294,
10.6725,14308,
10.675,14305,
10.6775,14304,
10.68,14307,
10.6825,14308,
10.685,14310,
10.6875,14308,
10.69,14310,
10.6925,14307,
10.695,14304,
10.6975,14307,
10.7,14301,
10.7025,14302,
10.705,14304,
10.7075,14303,
10.71,14297,
10.7125,14302,
10.715,14302,
10.7175,14299,
10.72,14302,
10.7225,14306,
10.725,14309,
10.7275,14295,
10.73,14305,
10.7325,14307,
10.735,14301,
10.7375,14300,
10.74,14309,
10.7425,14304,
10.745,14304,
10.7475,14302,
10.75,14298,
10.7525,14310,
10.755,14307,
10.7575,14304,
10.76,14305,
10.7625,14302,
10.765,14302,
10.7675,14305,
10.77,14305,
10.7725,14296,
10.775,14310,
10.7775,14299,
10.78,14300,
10.7825,14299,
10.785,14305,
10.7875,14305,
10.79,14292,
10.7925,14298,
10.795,14302,
10.7975,14303,
10.8,14302,
10.8025,14305,
10.805,14299,
10.8075,14291,
10.81,14303,
10.8125,14302,
10.815,14304,
10.8175,14307,
10.82,14304,
10.8225,14297,
10.825,14307,
10.8275,14304,
10.83,14301,
10.8325,14312,
10.835,14304,
10.8375,14319,
10.84,14314,
10.8425,14303,
10.845,14307,
10.8475,14305,
10.85,14309,
10.8525,14303,
10.855,14309,
10.8575,14299,
10.86,14310,
10.8625,14307,
10.865,14310,
10.8675,14307,
10.87,14309,
10.8725,14308,
10.875,14308,
10.8775,14308,
10.88,14304,
10.8825,14310,
10.885,14307,
10.8875,14314,
10.89,14309,
10.8925,14312,
10.895,14309,
10.8975,14307,
10.9,14318,
10.9025,14313,
10.905,14313,
10.9075,14315,
10.91,14315,
10.9125,14316,
10.915,14314,
10.9175,14317,
10.92,14320,
10.9225,14322,
10.925,14325,
10.9275,14327,
10.93,14319,
10.9325,14316,
10.935,14319,
10.9375,14323,
10.94,14327,
10.9425,14317,
10.945,14317,
10.9475,14323,
10.95,14324,
10.9525,14327,
10.955,14324,
10.9575,14330,
10.96,14327,
10.9625,14330,
10.965,14328,
10.9675,14327,
10.97,14338,
10.9725,14331,
10.975,14329,
10.9775,14337,
10.98,14331,
10.9825,14331,
10.985,14339,
10.9875,14334,
10.99,14337,
10.9925,14334,
10.995,14336,
10.9975,14335,
11,14339,
11.0025,14336,
11.005,14338,
11.0075,14349,
11.01,14338,
11.0125,14341,
11.015,14336,
11.0175,14341,
11.02,14339,
11.0225,14336,
11.025,14341,
11.0275,14341,
11.03,14346,
11.0325,14348,
11.035,14338,
11.0375,14347,
11.04,14343,
11.0425,14346,
11.045,14344,
11.0475,14343,
11.05,14357,
11.0525,14347,
11.055,14355,
11.0575,14348,
11.06,14349,
11.0625,14353,
11.065,14350,
11.0675,14359,
11.07,14355,
11.0725,14352,
11.075,14354,
11.0775,14358,
11.08,14362,
11.0825,14354,
11.085,14353,
11.0875,14360,
11.09,14363,
11.0925,14362,
11.095,14357,
11.0975,14364,
11.1,14361,
11.1025,14362,
11.105,14366,
11.1075,14358,
11.11,14362,
11.1125,14366,
11.115,14364,
11.1175,14359,
11.12,14359,
11.1225,14364,
11.125,14358,
11.1275,14360,
11.13,14355,
11.1325,14360,
11.135,14369,
11.1375,14357,
11.14,14358,
11.1425,14354,
11.145,14354,
11.1475,14353,
11.15,14351,
11.1525,14355,
11.155,14351,
11.1575,14353,
11.16,14346,
11.1625,14339,
11.165,14339,
11.1675,14344,
11.17,14340,
11.1725,14338,
11.175,14336,
11.1775,14339,
11.18,14336,
11.1825,14334,
11.185,14333,
11.1875,14329,
11.19,14334,
11.1925,14331,
11.195,14330,
11.1975,14333,
11.2,14335,
11.2025,14321,
11.205,14317,
11.2075,14328,
11.21,14325,
11.2125,14322,
11.215,14320,
11.2175,14320,
11.22,14323,
11.2225,14310,
11.225,14315,
11.2275,14314,
11.23,14311,
11.2325,14313,
11.235,14319,
11.2375,14318,
11.24,14309,
11.2425,14310,
11.245,14304,
11.2475,14311,
11.25,14307,
11.2525,14305,
11.255,14313,
11.2575,14307,
11.26,14305,
11.2625,14309,
11.265,14301,
11.2675,14297,
11.27,14300,
11.2725,14290,
11.275,14297,
11.2775,14300,
11.28,14298,
11.2825,14299,
11.285,14299,
11.2875,14293,
11.29,14298,
11.2925,14298,
11.295,14300,
11.2975,14296,
11.3,14290,
11.3025,14305,
11.305,14302,
11.3075,14298,
11.31,14290,
11.3125,14294,
11.315,14290,
11.3175,14301,
11.32,14294,
11.3225,14290,
11.325,14299,
11.3275,14294,
11.33,14295,
11.3325,14292,
11.335,14281,
11.3375,14292,
11.34,14285,
11.3425,14290,
11.345,14289,
11.3475,14290,
11.35,14292,
11.3525,14288,
11.355,14294,
11.3575,14290,
11.36,14287,
11.3625,14286,
11.365,14288,
11.3675,14284,
11.37,14288,
11.3725,14290,
11.375,14293,
11.3775,14290,
11.38,14285,
11.3825,14290,
11.385,14286,
11.3875,14287,
11.39,14295,
11.3925,14290,
11.395,14292,
11.3975,14288,
11.4,14287,
11.4025,14288,
11.405,14289,
11.4075,14282,
11.41,14285,
11.4125,14293,
11.415,14282,
11.4175,14286,
11.42,14290,
11.4225,14286,
11.425,14286,
11.4275,14287,
11.43,14283,
11.4325,14289,
11.435,14292,
11.4375,14286,
11.44,14286,
11.4425,14287,
11.445,14288,
11.4475,14292,
11.45,14281,
11.4525,14285,
11.455,14288,
11.4575,14290,
11.46,14288,
11.4625,14284,
11.465,14285,
11.4675,14292,
11.47,14295,
11.4725,14288,
11.475,14301,
11.4775,14287,
11.48,14289,
11.4825,14292,
11.485,14286,
11.4875,14287,
11.49,14292,
11.4925,14283,
11.495,14287,
11.4975,14292,
11.5,14284,
11.5025,14297,
11.505,14292,
11.5075,14290,
11.51,14289,
11.5125,14291,
11.515,14289,
11.5175,14301,
11.52,14290,
11.5225,14289,
11.525,14293,
11.5275,14294,
11.53,14295,
11.5325,14294,
11.535,14299,
11.5375,14291,
11.54,14299,
11.5425,14299,
11.545,14291,
11.5475,14300,
11.55,14303,
11.5525,14298,
11.555,14299,
11.5575,14295,
11.56,14309,
11.5625,14304,
11.565,14296,
11.5675,14305,
11.57,14304,
11.5725,14295,
11.575,14297,
11.5775,14298,
11.58,14299,
11.5825,14301,
11.585,14302,
11.5875,14309,
11.59,14300,
11.5925,14307,
11.595,14304,
11.5975,14305,
11.6,14310,
11.6025,14313,
11.605,14312,
11.6075,14308,
11.61,14311,
11.6125,14314,
11.615,14296,
11.6175,14307,
11.62,14314,
11.6225,14315,
11.625,14316,
11.6275,14309,
11.63,14312,
11.6325,14310,
11.635,14323,
11.6375,14311,
11.64,14319,
11.6425,14320,
11.645,14321,
11.6475,14319,
11.65,14316,
11.6525,14322,
11.655,14323,
11.6575,14319,
11.66,14320,
11.6625,14318,
11.665,14325,
11.6675,14317,
11.67,14321,
11.6725,14333,
11.675,14329,
11.6775,14325,
11.68,14328,
11.6825,14322,
11.685,14321,
11.6875,14330,
11.69,14328,
11.6925,14326,
11.695,14331,
11.6975,14327,
11.7,14328,
11.7025,14329,
11.705,14326,
11.7075,14334,
11.71,14329,
11.7125,14336,
11.715,14331,
11.7175,14339,
11.72,14334,
11.7225,14334,
11.725,14337,
11.7275,14340,
11.73,14337,
11.7325,14340,
11.735,14341,
11.7375,14340,
11.74,14335,
11.7425,14339,
11.745,14342,
11.7475,14341,
11.75,14336,
11.7525,14342,
11.755,14338,
11.7575,14345,
11.76,14341,
11.7625,14346,
11.765,14339,
11.7675,14351,
11.77,14346,
11.7725,14361,
11.775,14355,
11.7775,14347,
11.78,14348,
11.7825,14355,
11.785,14351,
11.7875,14353,
11.79,14352,
11.7925,14353,
11.795,14352,
11.7975,14356,
11.8,14359,
11.8025,14353,
11.805,14355,
11.8075,14362,
11.81,14359,
11.8125,14359,
11.815,14362,
11.8175,14362,
11.82,14366,
11.8225,14361,
11.825,14363,
11.8275,14368,
11.83,14370,
11.8325,14353,
11.835,14365,
11.8375,14368,
11.84,14363,
11.8425,14367,
11.845,14367,
11.8475,14368,
11.85,14377,
11.8525,14373,
11.855,14365,
11.8575,14377,
11.86,14368,
11.8625,14367,
11.865,14363,
11.8675,14371,
11.87,14368,
11.8725,14363,
11.875,14363,
11.8775,14355,
11.88,14361,
11.8825,14363,
11.885,14353,
11.8875,14361,
11.89,14362,
11.8925,14352,
11.895,14349,
11.8975,14358,
11.9,14354,
11.9025,14355,
11.905,14355,
11.9075,14355,
11.91,14354,
11.9125,14345,
11.915,14345,
11.9175,14345,
11.92,14343,
11.9225,14346,
11.925,14340,
11.9275,14339,
11.93,14342,
11.9325,14336,
11.935,14342,
11.9375,14337,
11.94,14327,
11.9425,14353,
11.945,14331,
11.9475,14331,
11.95,14334,
11.9525,14329,
11.955,14329,
11.9575,14326,
11.96,14328,
11.9625,14325,
11.965,14330,
11.9675,14329,
11.97,14332,
11.9725,14334,
11.975,14325,
11.9775,14327,
11.98,14323,
11.9825,14325,
11.985,14331,
11.9875,14331,
11.99,14326,
11.9925,14323,
11.995,14322,
11.9975,14323,
12,14329,
12.0025,14332,
12.005,14318,
12.0075,14324,
12.01,14326,
12.0125,14318,
12.015,14324,
12.0175,14320,
12.02,14329,
12.0225,14317,
12.025,14325,
12.0275,14328,
12.03,14318,
12.0325,14316,
12.035,14328,
12.0375,14320,
12.04,14307,
12.0425,14316,
12.045,14324,
12.0475,14322,
12.05,14313,
12.0525,14321,
12.055,14325,
12.0575,14325,
12.06,14319,
12.0625,14317,
12.065,14323,
12.0675,14313,
12.07,14331,
12.0725,14318,
12.075,14319,
12.0775,14324,
12.08,14325,
12.0825,14316,
12.085,14325,
12.0875,14319,
12.09,14319,
12.0925,14320,
12.095,14317,
12.0975,14320,
12.1,14319,
12.1025,14324,
12.105,14321,
12.1075,14329,
12.11,14323,
12.1125,14320,
12.115,14323,
12.1175,14322,
12.12,14327,
12.1225,14319,
12.125,14330,
12.1275,14325,
12.13,14329,
12.1325,14327,
12.135,14315,
12.1375,14323,
12.14,14326,
12.1425,14322,
12.145,14327,
12.1475,14324,
12.15,14326,
12.1525,14323,
12.155,14332,
12.1575,14327,
12.16,14331,
12.1625,14327,
12.165,14327,
12.1675,14327,
12.17,14335,
12.1725,14333,
12.175,14325,
12.1775,14327,
12.18,14335,
12.1825,14328,
12.185,14327,
12.1875,14330,
12.19,14330,
12.1925,14331,
12.195,14328,
12.1975,14331,
12.2,14327,
12.2025,14327,
12.205,14326,
12.2075,14329,
12.21,14329,
12.2125,14335,
12.215,14335,
12.2175,14334,
12.22,14333,
12.2225,14331,
12.225,14333,
12.2275,14337,
12.23,14328,
12.2325,14339,
12.235,14340,
12.2375,14331,
12.24,14345,
12.2425,14338,
12.245,14340,
12.2475,14335,
12.25,14343,
12.2525,14340,
12.255,14340,
12.2575,14335,
12.26,14335,
12.2625,14348,
12.265,14335,
12.2675,14340,
12.27,14345,
12.2725,14340,
12.275,14338,
12.2775,14342,
12.28,14348,
12.2825,14341,
12.285,14345,
12.2875,14345,
12.29,14342,
12.2925,14349,
12.295,14354,
12.2975,14345,
12.3,14329,
12.3025,14356,
12.305,14343,
12.3075,14347,
12.31,14344,
12.3125,14354,
12.315,14350,
12.3175,14353,
12.32,14353,
12.3225,14353,
12.325,14361,
12.3275,14356,
12.33,14352,
12.3325,14353,
12.335,14354,
12.3375,14358,
12.34,14359,
12.3425,14355,
12.345,14358,
12.3475,14355,
12.35,14354,
12.3525,14361,
12.355,14361,
12.3575,14368,
12.36,14357,
12.3625,14365,
12.365,14370,
12.3675,14368,
12.37,14364,
12.3725,14359,
12.375,14363,
12.3775,14355,
12.38,14367,
12.3825,14369,
12.385,14365,
12.3875,14370,
12.39,14370,
12.3925,14362,
12.395,14370,
12.3975,14372,
12.4,14377,
12.4025,14375,
12.405,14370,
12.4075,14373,
12.41,14377,
12.4125,14378,
12.415,14378,
12.4175,14379,
12.42,14378,
12.4225,14378,
12.425,14382,
12.4275,14379,
12.43,14381,
12.4325,14383,
12.435,14382,
12.4375,14383,
12.44,14378,
12.4425,14387,
12.445,14385,
12.4475,14382,
12.45,14394,
12.4525,14387,
12.455,14382,
12.4575,14389,
12.46,14388,
12.4625,14393,
12.465,14400,
12.4675,14390,
12.47,14389,
12.4725,14389,
12.475,14389,
12.4775,14394,
12.48,14397,
12.4825,14392,
12.485,14398,
12.4875,14399,
12.49,14395,
12.4925,14395,
12.495,14408,
12.4975,14404,
12.5,14397,
12.5025,14404,
12.505,14405,
12.5075,14407,
12.51,14411,
12.5125,14408,
12.515,14403,
12.5175,14410,
12.52,14410,
12.5225,14408,
12.525,14406,
12.5275,14416,
12.53,14417,
12.5325,14417,
12.535,14418,
12.5375,14418,
12.54,14416,
12.5425,14419,
12.545,14415,
12.5475,14420,
12.55,14419,
12.5525,14419,
12.555,14422,
12.5575,14417,
12.56,14427,
12.5625,14427,
12.565,14420,
12.5675,14425,
12.57,14425,
12.5725,14431,
12.575,14428,
12.5775,14427,
12.58,14445,
12.5825,14435,
12.585,14428,
12.5875,14427,
12.59,14432,
12.5925,14428,
12.595,14436,
12.5975,14434,
12.6,14432,
12.6025,14441,
12.605,14437,
12.6075,14437,
12.61,14436,
12.6125,14437,
12.615,14443,
12.6175,14436,
12.62,14442,
12.6225,14447,
12.625,14432,
12.6275,14435,
12.63,14437,
12.6325,14443,
12.635,14440,
12.6375,14436,
12.64,14434,
12.6425,14431,
12.645,14431,
12.6475,14436,
12.65,14428,
12.6525,14435,
12.655,14428,
12.6575,14429,
12.66,14423,
12.6625,14430,
12.665,14431,
12.6675,14422,
12.67,14423,
12.6725,14421,
12.675,14430,
12.6775,14418,
12.68,14424,
12.6825,14419,
12.685,14424,
12.6875,14421,
12.69,14421,
12.6925,14417,
12.695,14419,
12.6975,14425,
12.7,14415,
12.7025,14421,
12.705,14416,
12.7075,14426,
12.71,14415,
12.7125,14415,
12.715,14414,
12.7175,14411,
12.72,14409,
12.7225,14418,
12.725,14411,
12.7275,14412,
12.73,14412,
12.7325,14406,
12.735,14400,
12.7375,14406,
12.74,14408,
12.7425,14412,
12.745,14411,
12.7475,14410,
12.75,14405,
12.7525,14411,
12.755,14411,
12.7575,14408,
12.76,14410,
12.7625,14403,
12.765,14414,
12.7675,14411,
12.77,14412,
12.7725,14403,
12.775,14409,
12.7775,14406,
12.78,14403,
12.7825,14402,
12.785,14406,
12.7875,14412,
12.79,14407,
12.7925,14412,
12.795,14405,
12.7975,14407,
12.8,14403,
12.8025,14405,
12.805,14401,
12.8075,14403,
12.81,14402,
12.8125,14402,
12.815,14407,
12.8175,14405,
12.82,14409,
12.8225,14400,
12.825,14405,
12.8275,14406,
12.83,14403,
12.8325,14403,
12.835,14404,
12.8375,14414,
12.84,14413,
12.8425,14403,
12.845,14414,
12.8475,14410,
12.85,14409,
12.8525,14410,
12.855,14409,
12.8575,14410,
12.86,14407,
12.8625,14408,
12.865,14412,
12.8675,14413,
12.87,14412,
12.8725,14414,
12.875,14410,
12.8775,14418,
12.88,14409,
12.8825,14409,
12.885,14416,
12.8875,14406,
12.89,14409,
12.8925,14409,
12.895,14418,
12.8975,14416,
12.9,14412,
12.9025,14414,
12.905,14408,
12.9075,14422,
12.91,14421,
12.9125,14413,
12.915,14414,
12.9175,14408,
12.92,14418,
12.9225,14416,
12.925,14415,
12.9275,14413,
12.93,14424,
12.9325,14414,
12.935,14418,
12.9375,14420,
12.94,14414,
12.9425,14409,
12.945,14418,
12.9475,14418,
12.95,14420,
12.9525,14412,
12.955,14420,
12.9575,14423,
12.96,14418,
12.9625,14428,
12.965,14425,
12.9675,14424,
12.97,14419,
12.9725,14423,
12.975,14421,
12.9775,14420,
12.98,14422,
12.9825,14417,
12.985,14418,
12.9875,14420,
12.99,14419,
12.9925,14422,
12.995,14422,
12.9975,14424,
13,14426,
13.0025,14419,
13.005,14426,
13.0075,14425,
13.01,14432,
13.0125,14425,
13.015,14425,
13.0175,14430,
13.02,14428,
13.0225,14427,
13.025,14431,
13.0275,14424,
13.03,14428,
13.0325,14427,
13.035,14427,
13.0375,14430,
13.04,14432,
13.0425,14425,
13.045,14431,
13.0475,14447,
13.05,14430,
13.0525,14434,
13.055,14437,
13.0575,14435,
13.06,14432,
13.0625,14427,
13.065,14437,
13.0675,14436,
13.07,14438,
13.0725,14436,
13.075,14440,
13.0775,14436,
13.08,14439,
13.0825,14438,
13.085,14439,
13.0875,14446,
13.09,14451,
13.0925,14449,
13.095,14447,
13.0975,14440,
13.1,14442,
13.1025,14444,
13.105,14448,
13.1075,14443,
13.11,14452,
13.1125,14446,
13.115,14442,
13.1175,14456,
13.12,14454,
13.1225,14449,
13.125,14449,
13.1275,14453,
13.13,14447,
13.1325,14457,
13.135,14450,
13.1375,14457,
13.14,14450,
13.1425,14457,
13.145,14456,
13.1475,14454,
13.15,14460,
13.1525,14457,
13.155,14460,
13.1575,14460,
13.16,14466,
13.1625,14457,
13.165,14456,
13.1675,14464,
13.17,14465,
13.1725,14471,
13.175,14464,
13.1775,14460,
13.18,14465,
13.1825,14470,
13.185,14468,
13.1875,14471,
13.19,14472,
13.1925,14469,
13.195,14473,
13.1975,14464,
13.2,14468,
13.2025,14471,
13.205,14477,
13.2075,14475,
13.21,14472,
13.2125,14477,
13.215,14475,
13.2175,14489,
13.22,14479,
13.2225,14473,
13.225,14474,
13.2275,14486,
13.23,14481,
13.2325,14487,
13.235,14478,
13.2375,14484,
13.24,14480,
13.2425,14480,
13.245,14482,
13.2475,14477,
13.25,14482,
13.2525,14487,
13.255,14484,
13.2575,14483,
13.26,14492,
13.2625,14486,
13.265,14492,
13.2675,14487,
13.27,14488,
13.2725,14495,
13.275,14491,
13.2775,14496,
13.28,14490,
13.2825,14491,
13.285,14496,
13.2875,14495,
13.29,14496,
13.2925,14492,
13.295,14495,
13.2975,14494,
13.3,14496,
13.3025,14505,
13.305,14498,
13.3075,14493,
13.31,14495,
13.3125,14501,
13.315,14494,
13.3175,14493,
13.32,14498,
13.3225,14502,
13.325,14503,
13.3275,14497,
13.33,14496,
13.3325,14498,
13.335,14499,
13.3375,14493,
13.34,14497,
13.3425,14489,
13.345,14504,
13.3475,14489,
13.35,14495,
13.3525,14491,
13.355,14492,
13.3575,14490,
13.36,14498,
13.3625,14488,
13.365,14489,
13.3675,14496,
13.37,14488,
13.3725,14486,
13.375,14492,
13.3775,14480,
13.38,14483,
13.3825,14487,
13.385,14492,
13.3875,14482,
13.39,14483,
13.3925,14484,
13.395,14485,
13.3975,14484,
13.4,14481,
13.4025,14479,
13.405,14478,
13.4075,14477,
13.41,14470,
13.4125,14477,
13.415,14479,
13.4175,14472,
13.42,14474,
13.4225,14477,
13.425,14476,
13.4275,14474,
13.43,14481,
13.4325,14467,
13.435,14475,
13.4375,14473,
13.44,14468,
13.4425,14471,
13.445,14476,
13.4475,14471,
13.45,14476,
13.4525,14473,
13.455,14476,
13.4575,14469,
13.46,14473,
13.4625,14473,
13.465,14474,
13.4675,14466,
13.47,14468,
13.4725,14477,
13.475,14470,
13.4775,14476,
13.48,14471,
13.4825,14477,
13.485,14474,
13.4875,14475,
13.49,14468,
13.4925,14461,
13.495,14471,
13.4975,14469,
13.5,14468,
13.5025,14467,
13.505,14472,
13.5075,14470,
13.51,14475,
13.5125,14466,
13.515,14477,
13.5175,14465,
13.52,14472,
13.5225,14468,
13.525,14465,
13.5275,14473,
13.53,14470,
13.5325,14474,
13.535,14471,
13.5375,14469,
13.54,14468,
13.5425,14481,
13.545,14470,
13.5475,14471,
13.55,14473,
13.5525,14482,
13.555,14471,
13.5575,14474,
13.56,14475,
13.5625,14476,
13.565,14469,
13.5675,14486,
13.57,14481,
13.5725,14483,
13.575,14476,
13.5775,14479,
13.58,14478,
13.5825,14477,
13.585,14476,
13.5875,14475,
13.59,14481,
13.5925,14474,
13.595,14486,
13.5975,14480,
13.6,14490,
13.6025,14478,
13.605,14482,
13.6075,14481,
13.61,14476,
13.6125,14486,
13.615,14473,
13.6175,14485,
13.62,14482,
13.6225,14487,
13.625,14487,
13.6275,14468,
13.63,14480,
13.6325,14484,
13.635,14486,
13.6375,14486,
13.64,14482,
13.6425,14473,
13.645,14486,
13.6475,14478,
13.65,14485,
13.6525,14475,
13.655,14490,
13.6575,14486,
13.66,14486,
13.6625,14486,
13.665,14487,
13.6675,14487,
13.67,14493,
13.6725,14494,
13.675,14491,
13.6775,14482,
13.68,14489,
13.6825,14492,
13.685,14498,
13.6875,14484,
13.69,14485,
13.6925,14491,
13.695,14489,
13.6975,14491,
13.7,14495,
13.7025,14499,
13.705,14489,
13.7075,14496,
13.71,14497,
13.7125,14493,
13.715,14488,
13.7175,14490,
13.72,14498,
13.7225,14490,
13.725,14496,
13.7275,14501,
13.73,14489,
13.7325,14493,
13.735,14499,
13.7375,14504,
13.74,14498,
13.7425,14502,
13.745,14498,
13.7475,14500,
13.75,14498,
13.7525,14496,
13.755,14508,
13.7575,14506,
13.76,14500,
13.7625,14507,
13.765,14502,
13.7675,14504,
13.77,14500,
13.7725,14505,
13.775,14498,
13.7775,14505,
13.78,14508,
13.7825,14506,
13.785,14508,
13.7875,14507,
13.79,14510,
13.7925,14506,
13.795,14509,
13.7975,14510,
13.8,14502,
13.8025,14510,
13.805,14511,
13.8075,14509,
13.81,14515,
13.8125,14526,
13.815,14511,
13.8175,14518,
13.82,14512,
13.8225,14523,
13.825,14517,
13.8275,14517,
13.83,14518,
13.8325,14512,
13.835,14519,
13.8375,14521,
13.84,14516,
13.8425,14522,
13.845,14517,
13.8475,14522,
13.85,14519,
13.8525,14522,
13.855,14520,
13.8575,14527,
13.86,14522,
13.8625,14520,
13.865,14530,
13.8675,14526,
13.87,14527,
13.8725,14528,
13.875,14533,
13.8775,14533,
13.88,14527,
13.8825,14529,
13.885,14532,
13.8875,14525,
13.89,14525,
13.8925,14534,
13.895,14535,
13.8975,14537,
13.9,14544,
13.9025,14537,
13.905,14538,
13.9075,14532,
13.91,14538,
13.9125,14547,
13.915,14540,
13.9175,14535,
13.92,14543,
13.9225,14540,
13.925,14538,
13.9275,14552,
13.93,14544,
13.9325,14540,
13.935,14542,
13.9375,14541,
13.94,14544,
13.9425,14548,
13.945,14544,
13.9475,14552,
13.95,14542,
13.9525,14549,
13.955,14541,
13.9575,14548,
13.96,14544,
13.9625,14547,
13.965,14553,
13.9675,14550,
13.97,14546,
13.9725,14551,
13.975,14548,
13.9775,14554,
13.98,14544,
13.9825,14549,
13.985,14541,
13.9875,14548,
13.99,14537,
13.9925,14546,
13.995,14541,
13.9975,14543,
14,14542,
14.0025,14547,
14.005,14545,
14.0075,14538,
14.01,14535,
14.0125,14540,
14.015,14536,
14.0175,14538,
14.02,14535,
14.0225,14532,
14.025,14523,
14.0275,14532,
14.03,14537,
14.0325,14532,
14.035,14525,
14.0375,14524,
14.04,14538,
14.0425,14529,
14.045,14524,
14.0475,14532,
14.05,14527,
14.0525,14529,
14.055,14527,
14.0575,14525,
14.06,14517,
14.0625,14520,
14.065,14521,
14.0675,14530,
14.07,14522,
14.0725,14521,
14.075,14518,
14.0775,14525,
14.08,14521,
14.0825,14515,
14.085,14528,
14.0875,14521,
14.09,14517,
14.0925,14522,
14.095,14520,
14.0975,14520,
14.1,14509,
14.1025,14519,
14.105,14513,
14.1075,14521,
14.11,14522,
14.1125,14518,
14.115,14515,
14.1175,14516,
14.12,14526,
14.1225,14516,
14.125,14521,
14.1275,14512,
14.13,14526,
14.1325,14521,
14.135,14519,
14.1375,14515,
14.14,14515,
14.1425,14517,
14.145,14513,
14.1475,14514,
14.15,14523,
14.1525,14524,
14.155,14510,
14.1575,14510,
14.16,14519,
14.1625,14521,
14.165,14523,
14.1675,14520,
14.17,14518,
14.1725,14519,
14.175,14511,
14.1775,14517,
14.18,14524,
14.1825,14516,
14.185,14514,
14.1875,14513,
14.19,14517,
14.1925,14518,
14.195,14515,
14.1975,14520,
14.2,14529,
14.2025,14518,
14.205,14514,
14.2075,14522,
14.21,14519,
14.2125,14521,
14.215,14526,
14.2175,14522,
14.22,14514,
14.2225,14509,
14.225,14513,
14.2275,14518,
14.23,14521,
14.2325,14527,
14.235,14520,
14.2375,14527,
14.24,14521,
14.2425,14521,
14.245,14523,
14.2475,14515,
14.25,14515,
14.2525,14521,
14.255,14521,
14.2575,14520,
14.26,14526,
14.2625,14518,
14.265,14524,
14.2675,14523,
14.27,14522,
14.2725,14521,
14.275,14517,
14.2775,14524,
14.28,14523,
14.2825,14522,
14.285,14516,
14.2875,14527,
14.29,14524,
14.2925,14529,
14.295,14517,
14.2975,14520,
14.3,14532,
14.3025,14521,
14.305,14525,
14.3075,14528,
14.31,14527,
14.3125,14528,
14.315,14517,
14.3175,14527,
14.32,14525,
14.3225,14532,
14.325,14521,
14.3275,14527,
14.33,14527,
14.3325,14523,
14.335,14533,
14.3375,14519,
14.34,14526,
14.3425,14523,
14.345,14526,
14.3475,14526,
14.35,14525,
14.3525,14529,
14.355,14531,
14.3575,14524,
14.36,14529,
14.3625,14528,
14.365,14538,
14.3675,14534,
14.37,14530,
14.3725,14524,
14.375,14526,
14.3775,14538,
14.38,14532,
14.3825,14531,
14.385,14539,
14.3875,14529,
14.39,14533,
14.3925,14534,
14.395,14525,
14.3975,14527,
14.4,14532,
14.4025,14530,
14.405,14533,
14.4075,14535,
14.41,14538,
14.4125,14538,
14.415,14542,
14.4175,14539,
14.42,14542,
14.4225,14540,
14.425,14540,
14.4275,14543,
14.43,14542,
14.4325,14542,
14.435,14549,
14.4375,14543,
14.44,14543,
14.4425,14543,
14.445,14542,
14.4475,14540,
14.45,14550,
14.4525,14545,
14.455,14543,
14.4575,14553,
14.46,14545,
14.4625,14544,
14.465,14545,
14.4675,14552,
14.47,14546,
14.4725,14556,
14.475,14552,
14.4775,14556,
14.48,14553,
14.4825,14554,
14.485,14553,
14.4875,14554,
14.49,14560,
14.4925,14561,
14.495,14552,
14.4975,14551,
14.5,14556,
14.5025,14558,
14.505,14553,
14.5075,14564,
14.51,14559,
14.5125,14560,
14.515,14562,
14.5175,14563,
14.52,14563,
14.5225,14562,
14.525,14558,
14.5275,14555,
14.53,14561,
14.5325,14563,
14.535,14563,
14.5375,14557,
14.54,14557,
14.5425,14573,
14.545,14569,
14.5475,14563,
14.55,14568,
14.5525,14567,
14.555,14567,
14.5575,14569,
14.56,14569,
14.5625,14571,
14.565,14567,
14.5675,14566,
14.57,14566,
14.5725,14570,
14.575,14569,
14.5775,14573,
14.58,14565,
14.5825,14569,
14.585,14567,
14.5875,14576,
14.59,14570,
14.5925,14565,
14.595,14556,
14.5975,14557,
14.6,14564,
14.6025,14569,
14.605,14562,
14.6075,14565,
14.61,14561,
14.6125,14559,
14.615,14560,
14.6175,14562,
14.62,14567,
14.6225,14552,
14.625,14554,
14.6275,14554,
14.63,14554,
14.6325,14544,
14.635,14546,
14.6375,14547,
14.64,14547,
14.6425,14542,
14.645,14546,
14.6475,14553,
14.65,14547,
14.6525,14547,
14.655,14546,
14.6575,14543,
14.66,14541,
14.6625,14545,
14.665,14537,
14.6675,14546,
14.67,14539,
14.6725,14541,
14.675,14540,
14.6775,14538,
14.68,14539,
14.6825,14541,
14.685,14540,
14.6875,14533,
14.69,14537,
14.6925,14543,
14.695,14538,
14.6975,14538,
14.7,14534,
14.7025,14545,
14.705,14554,
14.7075,14537,
14.71,14534,
14.7125,14530,
14.715,14532,
14.7175,14539,
14.72,14525,
14.7225,14533,
14.725,14533,
14.7275,14526,
14.73,14530,
14.7325,14538,
14.735,14527,
14.7375,14531,
14.74,14532,
14.7425,14519,
14.745,14529,
14.7475,14533,
14.75,14534,
14.7525,14531,
14.755,14522,
14.7575,14538,
14.76,14532,
14.7625,14527,
14.765,14525,
14.7675,14534,
14.77,14532,
14.7725,14527,
14.775,14527,
14.7775,14529,
14.78,14527,
14.7825,14524,
14.785,14524,
14.7875,14527,
14.79,14534,
14.7925,14527,
14.795,14522,
14.7975,14520,
14.8,14523,
14.8025,14529,
14.805,14525,
14.8075,14533,
14.81,14531,
14.8125,14521,
14.815,14525,
14.8175,14518,
14.82,14528,
14.8225,14528,
14.825,14534,
14.8275,14524,
14.83,14529,
14.8325,14538,
14.835,14527,
14.8375,14529,
14.84,14525,
14.8425,14526,
14.845,14525,
14.8475,14519,
14.85,14538,
14.8525,14533,
14.855,14525,
14.8575,14530,
14.86,14518,
14.8625,14533,
14.865,14536,
14.8675,14532,
14.87,14523,
14.8725,14523,
14.875,14544,
14.8775,14530,
14.88,14525,
14.8825,14527,
14.885,14534,
14.8875,14524,
14.89,14538,
14.8925,14529,
14.895,14527,
14.8975,14534,
14.9,14531,
14.9025,14531,
14.905,14526,
14.9075,14534,
14.91,14532,
14.9125,14528,
14.915,14532,
14.9175,14536,
14.92,14535,
14.9225,14530,
14.925,14528,
14.9275,14527,
14.93,14529,
14.9325,14531,
14.935,14525,
14.9375,14529,
14.94,14528,
14.9425,14526,
14.945,14543,
14.9475,14535,
14.95,14534,
14.9525,14537,
14.955,14534,
14.9575,14536,
14.96,14528,
14.9625,14532,
14.965,14539,
14.9675,14535,
14.97,14529,
14.9725,14537,
14.975,14531,
14.9775,14535,
14.98,14534,
14.9825,14533,
14.985,14537,
14.9875,14528,
14.99,14534,
14.9925,14532,
14.995,14541,
14.9975,14542,
15,14543,
15.0025,14546,
15.005,14540,
15.0075,14532,
15.01,14544,
15.0125,14544,
15.015,14540,
15.0175,14539,
15.02,14540,
15.0225,14544,
15.025,14537,
15.0275,14539,
15.03,14543,
15.0325,14536,
15.035,14542,
15.0375,14539,
15.04,14541,
15.0425,14543,
15.045,14537,
15.0475,14547,
15.05,14542,
15.0525,14546,
15.055,14543,
15.0575,14548,
15.06,14548,
15.0625,14551,
15.065,14556,
15.0675,14539,
15.07,14551,
15.0725,14557,
15.075,14545,
15.0775,14549,
15.08,14555,
15.0825,14557,
15.085,14557,
15.0875,14562,
15.09,14555,
15.0925,14550,
15.095,14553,
15.0975,14556,
15.1,14552,
15.1025,14553,
15.105,14553,
15.1075,14557,
15.11,14558,
15.1125,14554,
15.115,14556,
15.1175,14553,
15.12,14562,
15.1225,14570,
15.125,14558,
15.1275,14558,
15.13,14557,
15.1325,14555,
15.135,14559,
15.1375,14562,
15.14,14568,
15.1425,14561,
15.145,14567,
15.1475,14562,
15.15,14563,
15.1525,14565,
15.155,14562,
15.1575,14563,
15.16,14566,
15.1625,14566,
15.165,14566,
15.1675,14567,
15.17,14568,
15.1725,14572,
15.175,14567,
15.1775,14575,
15.18,14572,
15.1825,14565,
15.185,14564,
15.1875,14570,
15.19,14566,
15.1925,14567,
15.195,14569,
15.1975,14569,
15.2,14565,
15.2025,14560,
15.205,14564,
15.2075,14566,
15.21,14563,
15.2125,14566,
15.215,14564,
15.2175,14562,
15.22,14569,
15.2225,14562,
15.225,14549,
15.2275,14559,
15.23,14557,
15.2325,14553,
15.235,14549,
15.2375,14558,
15.24,14558,
15.2425,14549,
15.245,14553,
15.2475,14553,
15.25,14547,
15.2525,14546,
15.255,14544,
15.2575,14548,
15.26,14547,
15.2625,14541,
15.265,14538,
15.2675,14537,
15.27,14540,
15.2725,14540,
15.275,14538,
15.2775,14532,
15.28,14535,
15.2825,14531,
15.285,14536,
15.2875,14537,
15.29,14532,
15.2925,14530,
15.295,14528,
15.2975,14529,
15.3,14532,
15.3025,14531,
15.305,14533,
15.3075,14526,
15.31,14531,
15.3125,14527,
15.315,14529,
15.3175,14520,
15.32,14526,
15.3225,14531,
15.325,14525,
15.3275,14531,
15.33,14520,
15.3325,14520,
15.335,14524,
15.3375,14526,
15.34,14525,
15.3425,14525,
15.345,14515,
15.3475,14520,
15.35,14518,
15.3525,14516,
15.355,14512,
15.3575,14517,
15.36,14511,
15.3625,14518,
15.365,14518,
15.3675,14519,
15.37,14511,
15.3725,14518,
15.375,14508,
15.3775,14512,
15.38,14517,
15.3825,14518,
15.385,14518,
15.3875,14514,
15.39,14507,
15.3925,14510,
15.395,14515,
15.3975,14507,
15.4,14518,
15.4025,14510,
15.405,14515,
15.4075,14511,
15.41,14507,
15.4125,14515,
15.415,14507,
15.4175,14509,
15.42,14511,
15.4225,14509,
15.425,14510,
15.4275,14515,
15.43,14511,
15.4325,14507,
15.435,14518,
15.4375,14507,
15.44,14501,
15.4425,14510,
15.445,14510,
15.4475,14512,
15.45,14508,
15.4525,14503,
15.455,14512,
15.4575,14506,
15.46,14509,
15.4625,14513,
15.465,14506,
15.4675,14517,
15.47,14518,
15.4725,14509,
15.475,14513,
15.4775,14515,
15.48,14510,
15.4825,14506,
15.485,14509,
15.4875,14508,
15.49,14501,
15.4925,14511,
15.495,14506,
15.4975,14502,
15.5,14506,
15.5025,14511,
15.505,14506,
15.5075,14511,
15.51,14510,
15.5125,14507,
15.515,14506,
15.5175,14506,
15.52,14508,
15.5225,14508,
15.525,14509,
15.5275,14506,
15.53,14504,
15.5325,14505,
15.535,14506,
15.5375,14506,
15.54,14506,
15.5425,14512,
15.545,14513,
15.5475,14504,
15.55,14499,
15.5525,14507,
15.555,14520,
15.5575,14503,
15.56,14506,
15.5625,14503,
15.565,14509,
15.5675,14505,
15.57,14507,
15.5725,14510,
15.575,14508,
15.5775,14511,
15.58,14514,
15.5825,14512,
15.585,14512,
15.5875,14514,
15.59,14507,
15.5925,14514,
15.595,14503,
15.5975,14514,
15.6,14512,
15.6025,14512,
15.605,14517,
15.6075,14516,
15.61,14513,
15.6125,14516,
15.615,14517,
15.6175,14514,
15.62,14516,
15.6225,14524,
15.625,14514,
15.6275,14513,
15.63,14515,
15.6325,14511,
15.635,14512,
15.6375,14517,
15.64,14514,
15.6425,14520,
15.645,14524,
15.6475,14525,
15.65,14515,
15.6525,14514,
15.655,14519,
15.6575,14517,
15.66,14522,
15.6625,14514,
15.665,14517,
15.6675,14516,
15.67,14523,
15.6725,14511,
15.675,14527,
15.6775,14515,
15.68,14519,
15.6825,14520,
15.685,14523,
15.6875,14519,
15.69,14521,
15.6925,14520,
15.695,14523,
15.6975,14522,
15.7,14528,
15.7025,14536,
15.705,14528,
15.7075,14526,
15.71,14516,
15.7125,14523,
15.715,14523,
15.7175,14529,
15.72,14528,
15.7225,14535,
15.725,14535,
15.7275,14529,
15.73,14527,
15.7325,14533,
15.735,14533,
15.7375,14530,
15.74,14530,
15.7425,14537,
15.745,14538,
15.7475,14524,
15.75,14530,
15.7525,14539,
15.755,14534,
15.7575,14534,
15.76,14542,
15.7625,14532,
15.765,14535,
15.7675,14535,
15.77,14533,
15.7725,14538,
15.775,14537,
15.7775,14538,
15.78,14538,
15.7825,14544,
15.785,14536,
15.7875,14542,
15.79,14544,
15.7925,14538,
15.795,14543,
15.7975,14537,
15.8,14544,
15.8025,14547,
15.805,14543,
15.8075,14547,
15.81,14556,
15.8125,14546,
15.815,14545,
15.8175,14554,
15.82,14543,
15.8225,14548,
15.825,14547,
15.8275,14548,
15.83,14560,
15.8325,14550,
15.835,14551,
15.8375,14545,
15.84,14540,
15.8425,14554,
15.845,14547,
15.8475,14550,
15.85,14549,
15.8525,14549,
15.855,14550,
15.8575,14547,
15.86,14551,
15.8625,14548,
15.865,14552,
15.8675,14551,
15.87,14545,
15.8725,14538,
15.875,14539,
15.8775,14542,
15.88,14542,
15.8825,14541,
15.885,14534,
15.8875,14535,
15.89,14543,
15.8925,14533,
15.895,14539,
15.8975,14536,
15.9,14530,
15.9025,14526,
15.905,14522,
15.9075,14525,
15.91,14526,
15.9125,14528,
15.915,14521,
15.9175,14515,
15.92,14525,
15.9225,14526,
15.925,14523,
15.9275,14516,
15.93,14511,
15.9325,14516,
15.935,14513,
15.9375,14514,
15.94,14515,
15.9425,14516,
15.945,14513,
15.9475,14509,
15.95,14509,
15.9525,14498,
15.955,14516,
15.9575,14506,
15.96,14502,
15.9625,14506,
15.965,14499,
15.9675,14505,
15.97,14503,
15.9725,14500,
15.975,14498,
15.9775,14496,
15.98,14509,
15.9825,14501,
15.985,14499,
15.9875,14499,
15.99,14498,
15.9925,14503,
15.995,14493,
15.9975,14498,
16,14493,
16.0025,14498,
16.005,14495,
16.0075,14488,
16.01,14494,
16.0125,14496,
16.015,14493,
16.0175,14490,
16.02,14494,
16.0225,14493,
16.025,14483,
16.0275,14486,
16.03,14484,
16.0325,14486,
16.035,14487,
16.0375,14487,
16.04,14487,
16.0425,14481,
16.045,14489,
16.0475,14487,
16.05,14484,
16.0525,14490,
16.055,14488,
16.0575,14482,
16.06,14477,
16.0625,14489,
16.065,14490,
16.0675,14485,
16.07,14483,
16.0725,14479,
16.075,14482,
16.0775,14482,
16.08,14484,
16.0825,14484,
16.085,14476,
16.0875,14480,
16.09,14487,
16.0925,14478,
16.095,14482,
16.0975,14477,
16.1,14477,
16.1025,14476,
16.105,14477,
16.1075,14491,
16.11,14482,
16.1125,14480,
16.115,14470,
16.1175,14482,
16.12,14479,
16.1225,14475,
16.125,14475,
16.1275,14477,
16.13,14484,
16.1325,14481,
16.135,14479,
16.1375,14480,
16.14,14477,
16.1425,14474,
16.145,14480,
16.1475,14482,
16.15,14483,
16.1525,14481,
16.155,14473,
16.1575,14476,
16.16,14482,
16.1625,14478,
16.165,14478,
16.1675,14477,
16.17,14474,
16.1725,14476,
16.175,14475,
16.1775,14470,
16.18,14479,
16.1825,14473,
16.185,14473,
16.1875,14473,
16.19,14473,
16.1925,14475,
16.195,14477,
16.1975,14476,
16.2,14475,
16.2025,14483,
16.205,14475,
16.2075,14475,
16.21,14473,
16.2125,14476,
16.215,14476,
16.2175,14475,
16.22,14478,
16.2225,14484,
16.225,14474,
16.2275,14477,
16.23,14472,
16.2325,14474,
16.235,14476,
16.2375,14479,
16.24,14473,
16.2425,14475,
16.245,14470,
16.2475,14478,
16.25,14475,
16.2525,14482,
16.255,14475,
16.2575,14466,
16.26,14479,
16.2625,14478,
16.265,14477,
16.2675,14479,
16.27,14476,
16.2725,14486,
16.275,14479,
16.2775,14485,
16.28,14476,
16.2825,14472,
16.285,14480,
16.2875,14480,
16.29,14484,
16.2925,14478,
16.295,14485,
16.2975,14486,
16.3,14487,
16.3025,14484,
16.305,14486,
16.3075,14478,
16.31,14477,
16.3125,14478,
16.315,14482,
16.3175,14484,
16.32,14488,
16.3225,14489,
16.325,14484,
16.3275,14484,
16.33,14476,
16.3325,14487,
16.335,14485,
16.3375,14477,
16.34,14490,
16.3425,14481,
16.345,14478,
16.3475,14489,
16.35,14487,
16.3525,14488,
16.355,14489,
16.3575,14498,
16.36,14496,
16.3625,14501,
16.365,14492,
16.3675,14490,
16.37,14499,
16.3725,14494,
16.375,14492,
16.3775,14500,
16.38,14496,
16.3825,14495,
16.385,14492,
16.3875,14490,
16.39,14500,
16.3925,14501,
16.395,14493,
16.3975,14497,
16.4,14499,
16.4025,14493,
16.405,14499,
16.4075,14502,
16.41,14507,
16.4125,14497,
16.415,14501,
16.4175,14504,
16.42,14499,
16.4225,14506,
16.425,14497,
16.4275,14506,
16.43,14503,
16.4325,14504,
16.435,14505,
16.4375,14505,
16.44,14499,
16.4425,14502,
16.445,14510,
16.4475,14515,
16.45,14510,
16.4525,14515,
16.455,14509,
16.4575,14506,
16.46,14509,
16.4625,14515,
16.465,14513,
16.4675,14507,
16.47,14508,
16.4725,14514,
16.475,14515,
16.4775,14507,
16.48,14516,
16.4825,14516,
16.485,14510,
16.4875,14518,
16.49,14516,
16.4925,14512,
16.495,14524,
16.4975,14511,
16.5,14513,
16.5025,14509,
16.505,14521,
16.5075,14519,
16.51,14514,
16.5125,14523,
16.515,14520,
16.5175,14526,
16.52,14515,
16.5225,14514,
16.525,14522,
16.5275,14525,
16.53,14523,
16.5325,14534,
16.535,14530,
16.5375,14525,
16.54,14524,
16.5425,14525,
16.545,14525,
16.5475,14528,
16.55,14530,
16.5525,14530,
16.555,14538,
16.5575,14525,
16.56,14526,
16.5625,14536,
16.565,14535,
16.5675,14533,
16.57,14527,
16.5725,14528,
16.575,14532,
16.5775,14534,
16.58,14533,
16.5825,14532,
16.585,14530,
16.5875,14535,
16.59,14539,
16.5925,14527,
16.595,14525,
16.5975,14534,
16.6,14528,
16.6025,14527,
16.605,14528,
16.6075,14534,
16.61,14528,
16.6125,14530,
16.615,14526,
16.6175,14523,
16.62,14524,
16.6225,14523,
16.625,14519,
16.6275,14514,
16.63,14517,
16.6325,14514,
16.635,14518,
16.6375,14517,
16.64,14519,
16.6425,14515,
16.645,14513,
16.6475,14508,
16.65,14516,
16.6525,14505,
16.655,14507,
16.6575,14502,
16.66,14516,
16.6625,14499,
16.665,14497,
16.6675,14502,
16.67,14497,
16.6725,14498,
16.675,14497,
16.6775,14496,
16.68,14492,
16.6825,14495,
16.685,14489,
16.6875,14486,
16.69,14496,
16.6925,14486,
16.695,14490,
16.6975,14492,
16.7,14483,
16.7025,14481,
16.705,14488,
16.7075,14483,
16.71,14487,
16.7125,14490,
16.715,14485,
16.7175,14481,
16.72,14487,
16.7225,14475,
16.725,14478,
16.7275,14477,
16.73,14482,
16.7325,14485,
16.735,14475,
16.7375,14474,
16.74,14477,
16.7425,14475,
16.745,14479,
16.7475,14475,
16.75,14470,
16.7525,14469,
16.755,14472,
16.7575,14473,
16.76,14469,
16.7625,14475,
16.765,14471,
16.7675,14465,
16.77,14464,
16.7725,14468,
16.775,14467,
16.7775,14466,
16.78,14468,
16.7825,14463,
16.785,14461,
16.7875,14470,
16.79,14458,
16.7925,14462,
16.795,14459,
16.7975,14466,
16.8,14458,
16.8025,14465,
16.805,14461,
16.8075,14466,
16.81,14461,
16.8125,14459,
16.815,14460,
16.8175,14454,
16.82,14459,
16.8225,14459,
16.825,14465,
16.8275,14459,
16.83,14465,
16.8325,14464,
16.835,14455,
16.8375,14465,
16.84,14458,
16.8425,14457,
16.845,14467,
16.8475,14460,
16.85,14458,
16.8525,14460,
16.855,14457,
16.8575,14452,
16.86,14460,
16.8625,14459,
16.865,14465,
16.8675,14460,
16.87,14460,
16.8725,14459,
16.875,14455,
16.8775,14462,
16.88,14457,
16.8825,14457,
16.885,14463,
16.8875,14464,
16.89,14453,
16.8925,14453,
16.895,14455,
16.8975,14457,
16.9,14461,
16.9025,14453,
16.905,14456,
16.9075,14463,
16.91,14455,
16.9125,14452,
16.915,14468,
16.9175,14459,
16.92,14451,
16.9225,14459,
16.925,14457,
16.9275,14454,
16.93,14448,
16.9325,14450,
16.935,14454,
16.9375,14452,
16.94,14455,
16.9425,14449,
16.945,14452,
16.9475,14460,
16.95,14456,
16.9525,14461,
16.955,14452,
16.9575,14444,
16.96,14449,
16.9625,14446,
16.965,14449,
16.9675,14464,
16.97,14445,
16.9725,14452,
16.975,14447,
16.9775,14450,
16.98,14454,
16.9825,14447,
16.985,14453,
16.9875,14454,
16.99,14449,
16.9925,14454,
16.995,14454,
16.9975,14452,
17,14467,
17.0025,14455,
17.005,14451,
17.0075,14458,
17.01,14457,
17.0125,14452,
17.015,14453,
17.0175,14458,
17.02,14459,
17.0225,14454,
17.025,14459,
17.0275,14454,
17.03,14457,
17.0325,14456,
17.035,14457,
17.0375,14460,
17.04,14458,
17.0425,14464,
17.045,14457,
17.0475,14468,
17.05,14461,
17.0525,14460,
17.055,14460,
17.0575,14460,
17.06,14460,
17.0625,14459,
17.065,14459,
17.0675,14459,
17.07,14463,
17.0725,14453,
17.075,14463,
17.0775,14459,
17.08,14460,
17.0825,14459,
17.085,14470,
17.0875,14458,
17.09,14467,
17.0925,14472,
17.095,14464,
17.0975,14462,
17.1,14465,
17.1025,14466,
17.105,14467,
17.1075,14464,
17.11,14463,
17.1125,14468,
17.115,14466,
17.1175,14476,
17.12,14470,
17.1225,14465,
17.125,14464,
17.1275,14479,
17.13,14471,
17.1325,14473,
17.135,14468,
17.1375,14469,
17.14,14475,
17.1425,14473,
17.145,14470,
17.1475,14472,
17.15,14478,
17.1525,14474,
17.155,14480,
17.1575,14473,
17.16,14475,
17.1625,14474,
17.165,14480,
17.1675,14480,
17.17,14489,
17.1725,14483,
17.175,14471,
17.1775,14471,
17.18,14474,
17.1825,14472,
17.185,14475,
17.1875,14481,
17.19,14479,
17.1925,14487,
17.195,14479,
17.1975,14480,
17.2,14485,
17.2025,14484,
17.205,14491,
17.2075,14481,
17.21,14491,
17.2125,14500,
17.215,14486,
17.2175,14489,
17.22,14489,
17.2225,14487,
17.225,14489,
17.2275,14490,
17.23,14484,
17.2325,14488,
17.235,14497,
17.2375,14481,
17.24,14482,
17.2425,14492,
17.245,14491,
17.2475,14498,
17.25,14496,
17.2525,14502,
17.255,14501,
17.2575,14490,
17.26,14495,
17.2625,14497,
17.265,14501,
17.2675,14499,
17.27,14496,
17.2725,14497,
17.275,14498,
17.2775,14502,
17.28,14503,
17.2825,14506,
17.285,14497,
17.2875,14499,
17.29,14504,
17.2925,14502,
17.295,14507,
17.2975,14505,
17.3,14506,
17.3025,14504,
17.305,14510,
17.3075,14509,
17.31,14505,
17.3125,14508,
17.315,14503,
17.3175,14513,
17.32,14506,
17.3225,14507,
17.325,14513,
17.3275,14511,
17.33,14512,
17.3325,14512,
17.335,14512,
17.3375,14513,
17.34,14511,
17.3425,14511,
17.345,14517,
17.3475,14515,
17.35,14516,
17.3525,14522,
17.355,14517,
17.3575,14516,
17.36,14521,
17.3625,14522,
17.365,14524,
17.3675,14514,
17.37,14521,
17.3725,14518,
17.375,14526,
17.3775,14524,
17.38,14522,
17.3825,14528,
17.385,14534,
17.3875,14525,
17.39,14530,
17.3925,14528,
17.395,14531,
17.3975,14530,
17.4,14528,
17.4025,14534,
17.405,14536,
17.4075,14539,
17.41,14527,
17.4125,14524,
17.415,14533,
17.4175,14539,
17.42,14525,
17.4225,14527,
17.425,14532,
17.4275,14527,
17.43,14530,
17.4325,14532,
17.435,14536,
17.4375,14524,
17.44,14530,
17.4425,14519,
17.445,14528,
17.4475,14517,
17.45,14526,
17.4525,14525,
17.455,14523,
17.4575,14513,
17.46,14515,
17.4625,14519,
17.465,14515,
17.4675,14518,
17.47,14510,
17.4725,14504,
17.475,14512,
17.4775,14508,
17.48,14509,
17.4825,14508,
17.485,14509,
17.4875,14507,
17.49,14503,
17.4925,14502,
17.495,14502,
17.4975,14499,
17.5,14501,
17.5025,14491,
17.505,14500,
17.5075,14494,
17.51,14492,
17.5125,14487,
17.515,14492,
17.5175,14489,
17.52,14488,
17.5225,14492,
17.525,14484,
17.5275,14482,
17.53,14487,
17.5325,14484,
17.535,14487,
17.5375,14474,
17.54,14481,
17.5425,14483,
17.545,14483,
17.5475,14478,
17.55,14478,
17.5525,14488,
17.555,14479,
17.5575,14476,
17.56,14478,
17.5625,14478,
17.565,14475,
17.5675,14477,
17.57,14477,
17.5725,14475,
17.575,14475,
17.5775,14470,
17.58,14476,
17.5825,14471,
17.585,14465,
17.5875,14465,
17.59,14467,
17.5925,14472,
17.595,14468,
17.5975,14468,
17.6,14467,
17.6025,14468,
17.605,14458,
17.6075,14463,
17.61,14472,
17.6125,14463,
17.615,14461,
17.6175,14465,
17.62,14464,
17.6225,14461,
17.625,14465,
17.6275,14461,
17.63,14467,
17.6325,14467,
17.635,14461,
17.6375,14470,
17.64,14464,
17.6425,14463,
17.645,14463,
17.6475,14461,
17.65,14465,
17.6525,14460,
17.655,14459,
17.6575,14456,
17.66,14456,
17.6625,14452,
17.665,14463,
17.6675,14458,
17.67,14454,
17.6725,14462,
17.675,14459,
17.6775,14456,
17.68,14456,
17.6825,14454,
17.685,14455,
17.6875,14451,
17.69,14462,
17.6925,14458,
17.695,14459,
17.6975,14461,
17.7,14456,
17.7025,14462,
17.705,14454,
17.7075,14465,
17.71,14460,
17.7125,14459,
17.715,14458,
17.7175,14455,
17.72,14461,
17.7225,14464,
17.725,14458,
17.7275,14453,
17.73,14461,
17.7325,14458,
17.735,14459,
17.7375,14453,
17.74,14461,
17.7425,14460,
17.745,14458,
17.7475,14451,
17.75,14457,
17.7525,14450,
17.755,14452,
17.7575,14451,
17.76,14455,
17.7625,14454,
17.765,14463,
17.7675,14445,
17.77,14450,
17.7725,14456,
17.775,14457,
17.7775,14449,
17.78,14455,
17.7825,14448,
17.785,14454,
17.7875,14455,
17.79,14460,
17.7925,14452,
17.795,14448,
17.7975,14458,
17.8,14455,
17.8025,14458,
17.805,14456,
17.8075,14466,
17.81,14453,
17.8125,14457,
17.815,14452,
17.8175,14457,
17.82,14459,
17.8225,14453,
17.825,14451,
17.8275,14453,
17.83,14452,
17.8325,14457,
17.835,14449,
17.8375,14454,
17.84,14460,
17.8425,14459,
17.845,14462,
17.8475,14455,
17.85,14465,
17.8525,14455,
17.855,14457,
17.8575,14458,
17.86,14459,
17.8625,14462,
17.865,14457,
17.8675,14455,
17.87,14464,
17.8725,14459,
17.875,14466,
17.8775,14465,
17.88,14461,
17.8825,14456,
17.885,14461,
17.8875,14460,
17.89,14463,
17.8925,14464,
17.895,14458,
17.8975,14470,
17.9,14462,
17.9025,14465,
17.905,14462,
17.9075,14462,
17.91,14463,
17.9125,14459,
17.915,14460,
17.9175,14462,
17.92,14472,
17.9225,14464,
17.925,14463,
17.9275,14461,
17.93,14464,
17.9325,14464,
17.935,14473,
17.9375,14468,
17.94,14464,
17.9425,14469,
17.945,14464,
17.9475,14464,
17.95,14468,
17.9525,14469,
17.955,14464,
17.9575,14468,
17.96,14472,
17.9625,14471,
17.965,14472,
17.9675,14466,
17.97,14461,
17.9725,14482,
17.975,14470,
17.9775,14481,
17.98,14472,
17.9825,14475,
17.985,14471,
17.9875,14475,
17.99,14471,
17.9925,14469,
17.995,14474,
17.9975,14478,
18,14483,
18.0025,14479,
18.005,14476,
18.0075,14478,
18.01,14483,
18.0125,14479,
18.015,14474,
18.0175,14483,
18.02,14485,
18.0225,14479,
18.025,14479,
18.0275,14485,
18.03,14483,
18.0325,14479,
18.035,14480,
18.0375,14483,
18.04,14479,
18.0425,14489,
18.045,14483,
18.0475,14485,
18.05,14482,
18.0525,14489,
18.055,14492,
18.0575,14495,
18.06,14494,
18.0625,14492,
18.065,14491,
18.0675,14500,
18.07,14491,
18.0725,14497,
18.075,14488,
18.0775,14496,
18.08,14492,
18.0825,14497,
18.085,14497,
18.0875,14507,
18.09,14493,
18.0925,14505,
18.095,14504,
18.0975,14497,
18.1,14504,
18.1025,14501,
18.105,14509,
18.1075,14498,
18.11,14503,
18.1125,14500,
18.115,14501,
18.1175,14505,
18.12,14504,
18.1225,14508,
18.125,14511,
18.1275,14508,
18.13,14503,
18.1325,14506,
18.135,14500,
18.1375,14506,
18.14,14506,
18.1425,14514,
18.145,14517,
18.1475,14514,
18.15,14515,
18.1525,14509,
18.155,14517,
18.1575,14505,
18.16,14514,
18.1625,14510,
18.165,14516,
18.1675,14518,
18.17,14518,
18.1725,14519,
18.175,14525,
18.1775,14511,
18.18,14522,
18.1825,14523,
18.185,14519,
18.1875,14517,
18.19,14532,
18.1925,14518,
18.195,14531,
18.1975,14521,
18.2,14527,
18.2025,14529,
18.205,14529,
18.2075,14530,
18.21,14529,
18.2125,14524,
18.215,14524,
18.2175,14532,
18.22,14527,
18.2225,14534,
18.225,14534,
18.2275,14532,
18.23,14537,
18.2325,14536,
18.235,14543,
18.2375,14535,
18.24,14540,
18.2425,14531,
18.245,14533,
18.2475,14533,
18.25,14542,
18.2525,14528,
18.255,14528,
18.2575,14539,
18.26,14528,
18.2625,14532,
18.265,14532,
18.2675,14536,
18.27,14527,
18.2725,14532,
18.275,14541,
18.2775,14532,
18.28,14527,
18.2825,14528,
18.285,14530,
18.2875,14526,
18.29,14521,
18.2925,14522,
18.295,14527,
18.2975,14515,
18.3,14520,
18.3025,14519,
18.305,14511,
18.3075,14524,
18.31,14516,
18.3125,14515,
18.315,14509,
18.3175,14517,
18.32,14509,
18.3225,14511,
18.325,14503,
18.3275,14506,
18.33,14508,
18.3325,14502,
18.335,14504,
18.3375,14503,
18.34,14502,
18.3425,14495,
18.345,14495,
18.3475,14499,
18.35,14492,
18.3525,14498,
18.355,14495,
18.3575,14500,
18.36,14498,
18.3625,14489,
18.365,14485,
18.3675,14487,
18.37,14490,
18.3725,14487,
18.375,14486,
18.3775,14484,
18.38,14490,
18.3825,14488,
18.385,14489,
18.3875,14484,
18.39,14484,
18.3925,14486,
18.395,14484,
18.3975,14483,
18.4,14481,
18.4025,14494,
18.405,14482,
18.4075,14482,
18.41,14485,
18.4125,14475,
18.415,14484,
18.4175,14476,
18.42,14481,
18.4225,14477,
18.425,14484,
18.4275,14480,
18.43,14479,
18.4325,14475,
18.435,14486,
18.4375,14474,
18.44,14479,
18.4425,14477,
18.445,14476,
18.4475,14474,
18.45,14474,
18.4525,14473,
18.455,14473,
18.4575,14473,
18.46,14475,
18.4625,14475,
18.465,14470,
18.4675,14468,
18.47,14469,
18.4725,14475,
18.475,14482,
18.4775,14476,
18.48,14470,
18.4825,14469,
18.485,14479,
18.4875,14478,
18.49,14473,
18.4925,14468,
18.495,14470,
18.4975,14471,
18.5,14473,
18.5025,14475,
18.505,14471,
18.5075,14473,
18.51,14478,
18.5125,14473,
18.515,14478,
18.5175,14476,
18.52,14473,
18.5225,14471,
18.525,14474,
18.5275,14479,
18.53,14474,
18.5325,14478,
18.535,14476,
18.5375,14477,
18.54,14478,
18.5425,14480,
18.545,14478,
18.5475,14473,
18.55,14471,
18.5525,14489,
18.555,14474,
18.5575,14470,
18.56,14473,
18.5625,14478,
18.565,14472,
18.5675,14471,
18.57,14478,
18.5725,14481,
18.575,14480,
18.5775,14464,
18.58,14475,
18.5825,14472,
18.585,14473,
18.5875,14477,
18.59,14477,
18.5925,14474,
18.595,14473,
18.5975,14467,
18.6,14471,
18.6025,14467,
18.605,14472,
18.6075,14474,
18.61,14478,
18.6125,14468,
18.615,14471,
18.6175,14469,
18.62,14471,
18.6225,14474,
18.625,14476,
18.6275,14475,
18.63,14477,
18.6325,14474,
18.635,14478,
18.6375,14480,
18.64,14473,
18.6425,14479,
18.645,14470,
18.6475,14476,
18.65,14474,
18.6525,14484,
18.655,14481,
18.6575,14480,
18.66,14476,
18.6625,14474,
18.665,14477,
18.6675,14480,
18.67,14468,
18.6725,14478,
18.675,14480,
18.6775,14478,
18.68,14481,
18.6825,14472,
18.685,14477,
18.6875,14479,
18.69,14479,
18.6925,14477,
18.695,14483,
18.6975,14481,
18.7,14479,
18.7025,14480,
18.705,14481,
18.7075,14483,
18.71,14480,
18.7125,14486,
18.715,14485,
18.7175,14479,
18.72,14489,
18.7225,14485,
18.725,14481,
18.7275,14490,
18.73,14484,
18.7325,14493,
18.735,14483,
18.7375,14484,
18.74,14481,
18.7425,14490,
18.745,14483,
18.7475,14488,
18.75,14489,
18.7525,14483,
18.755,14481,
18.7575,14481,
18.76,14484,
18.7625,14488,
18.765,14490,
18.7675,14488,
18.77,14485,
18.7725,14493,
18.775,14496,
18.7775,14494,
18.78,14494,
18.7825,14496,
18.785,14497,
18.7875,14497,
18.79,14488,
18.7925,14505,
18.795,14494,
18.7975,14499,
18.8,14501,
18.8025,14503,
18.805,14500,
18.8075,14501,
18.81,14504,
18.8125,14499,
18.815,14499,
18.8175,14503,
18.82,14505,
18.8225,14505,
18.825,14504,
18.8275,14516,
18.83,14499,
18.8325,14509,
18.835,14507,
18.8375,14505,
18.84,14505,
18.8425,14517,
18.845,14508,
18.8475,14511,
18.85,14508,
18.8525,14508,
18.855,14507,
18.8575,14511,
18.86,14509,
18.8625,14509,
18.865,14511,
18.8675,14510,
18.87,14503,
18.8725,14515,
18.875,14515,
18.8775,14510,
18.88,14514,
18.8825,14521,
18.885,14521,
18.8875,14513,
18.89,14517,
18.8925,14513,
18.895,14515,
18.8975,14514,
18.9,14522,
18.9025,14523,
18.905,14524,
18.9075,14518,
18.91,14520,
18.9125,14528,
18.915,14525,
18.9175,14517,
18.92,14524,
18.9225,14521,
18.925,14521,
18.9275,14529,
18.93,14526,
18.9325,14517,
18.935,14529,
18.9375,14528,
18.94,14529,
18.9425,14532,
18.945,14529,
18.9475,14537,
18.95,14529,
18.9525,14533,
18.955,14544,
18.9575,14533,
18.96,14532,
18.9625,14536,
18.965,14531,
18.9675,14533,
18.97,14540,
18.9725,14534,
18.975,14536,
18.9775,14537,
18.98,14541,
18.9825,14545,
18.985,14539,
18.9875,14545,
18.99,14539,
18.9925,14537,
18.995,14544,
18.9975,14544,
19,14548,
19.0025,14547,
19.005,14546,
19.0075,14544,
19.01,14543,
19.0125,14543,
19.015,14546,
19.0175,14544,
19.02,14548,
19.0225,14544,
19.025,14534,
19.0275,14551,
19.03,14545,
19.0325,14543,
19.035,14537,
19.0375,14540,
19.04,14550,
19.0425,14540,
19.045,14542,
19.0475,14534,
19.05,14543,
19.0525,14541,
19.055,14540,
19.0575,14536,
19.06,14535,
19.0625,14543,
19.065,14541,
19.0675,14536,
19.07,14530,
19.0725,14536,
19.075,14532,
19.0775,14528,
19.08,14524,
19.0825,14525,
19.085,14530,
19.0875,14528,
19.09,14528,
19.0925,14518,
19.095,14514,
19.0975,14524,
19.1,14523,
19.1025,14521,
19.105,14518,
19.1075,14517,
19.11,14525,
19.1125,14512,
19.115,14517,
19.1175,14510,
19.12,14516,
19.1225,14507,
19.125,14513,
19.1275,14513,
19.13,14505,
19.1325,14511,
19.135,14506,
19.1375,14506,
19.14,14503,
19.1425,14499,
19.145,14496,
19.1475,14507,
19.15,14500,
19.1525,14512,
19.155,14499,
19.1575,14492,
19.16,14498,
19.1625,14498,
19.165,14498,
19.1675,14497,
19.17,14495,
19.1725,14500,
19.175,14494,
19.1775,14496,
19.18,14501,
19.1825,14498,
19.185,14503,
19.1875,14495,
19.19,14494,
19.1925,14494,
19.195,14491,
19.1975,14492,
19.2,14500,
19.2025,14493,
19.205,14492,
19.2075,14496,
19.21,14502,
19.2125,14494,
19.215,14493,
19.2175,14493,
19.22,14497,
19.2225,14492,
19.225,14500,
19.2275,14489,
19.23,14491,
19.2325,14484,
19.235,14493,
19.2375,14498,
19.24,14496,
19.2425,14486,
19.245,14497,
19.2475,14491,
19.25,14491,
19.2525,14496,
19.255,14493,
19.2575,14490,
19.26,14490,
19.2625,14491,
19.265,14490,
19.2675,14492,
19.27,14494,
19.2725,14491,
19.275,14489,
19.2775,14495,
19.28,14492,
19.2825,14500,
19.285,14492,
19.2875,14491,
19.29,14493,
19.2925,14497,
19.295,14495,
19.2975,14486,
19.3,14489,
19.3025,14494,
19.305,14488,
19.3075,14492,
19.31,14493,
19.3125,14496,
19.315,14489,
19.3175,14491,
19.32,14487,
19.3225,14498,
19.325,14490,
19.3275,14496,
19.33,14495,
19.3325,14492,
19.335,14492,
19.3375,14502,
19.34,14487,
19.3425,14492,
19.345,14494,
19.3475,14488,
19.35,14494,
19.3525,14486,
19.355,14487,
19.3575,14493,
19.36,14488,
19.3625,14487,
19.365,14492,
19.3675,14491,
19.37,14485,
19.3725,14481,
19.375,14484,
19.3775,14490,
19.38,14499,
19.3825,14493,
19.385,14491,
19.3875,14486,
19.39,14485,
19.3925,14493,
19.395,14492,
19.3975,14490,
19.4,14494,
19.4025,14495,
19.405,14487,
19.4075,14489,
19.41,14489,
19.4125,14496,
19.415,14487,
19.4175,14493,
19.42,14486,
19.4225,14487,
19.425,14500,
19.4275,14490,
19.43,14489,
19.4325,14490,
19.435,14498,
19.4375,14490,
19.44,14487,
19.4425,14496,
19.445,14490,
19.4475,14491,
19.45,14500,
19.4525,14488,
19.455,14489,
19.4575,14488,
19.46,14489,
19.4625,14490,
19.465,14509,
19.4675,14499,
19.47,14492,
19.4725,14498,
19.475,14494,
19.4775,14498,
19.48,14497,
19.4825,14490,
19.485,14494,
19.4875,14493,
19.49,14501,
19.4925,14502,
19.495,14503,
19.4975,14493,
19.5,14504,
19.5025,14499,
19.505,14498,
19.5075,14512,
19.51,14499,
19.5125,14500,
19.515,14502,
19.5175,14503,
19.52,14502,
19.5225,14504,
19.525,14503,
19.5275,14500,
19.53,14499,
19.5325,14501,
19.535,14503,
19.5375,14499,
19.54,14509,
19.5425,14505,
19.545,14509,
19.5475,14515,
19.55,14512,
19.5525,14508,
19.555,14507,
19.5575,14515,
19.56,14505,
19.5625,14511,
19.565,14509,
19.5675,14507,
19.57,14514,
19.5725,14509,
19.575,14509,
19.5775,14517,
19.58,14510,
19.5825,14516,
19.585,14507,
19.5875,14512,
19.59,14514,
19.5925,14527,
19.595,14514,
19.5975,14517,
19.6,14514,
19.6025,14514,
19.605,14518,
19.6075,14515,
19.61,14519,
19.6125,14519,
19.615,14517,
19.6175,14518,
19.62,14522,
19.6225,14519,
19.625,14525,
19.6275,14524,
19.63,14517,
19.6325,14525,
19.635,14525,
19.6375,14527,
19.64,14528,
19.6425,14524,
19.645,14528,
19.6475,14523,
19.65,14525,
19.6525,14521,
19.655,14527,
19.6575,14524,
19.66,14528,
19.6625,14533,
19.665,14525,
19.6675,14530,
19.67,14536,
19.6725,14529,
19.675,14531,
19.6775,14544,
19.68,14529,
19.6825,14537,
19.685,14529,
19.6875,14535,
19.69,14537,
19.6925,14536,
19.695,14531,
19.6975,14533,
19.7,14535,
19.7025,14539,
19.705,14541,
19.7075,14529,
19.71,14533,
19.7125,14536,
19.715,14531,
19.7175,14528,
19.72,14528,
19.7225,14526,
19.725,14528,
19.7275,14524,
19.73,14532,
19.7325,14523,
19.735,14520,
19.7375,14522,
19.74,14521,
19.7425,14520,
19.745,14515,
19.7475,14523,
19.75,14520,
19.7525,14513,
19.755,14516,
19.7575,14512,
19.76,14508,
19.7625,14520,
19.765,14510,
19.7675,14511,
19.77,14517,
19.7725,14504,
19.775,14504,
19.7775,14498,
19.78,14498,
19.7825,14496,
19.785,14503,
19.7875,14495,
19.79,14501,
19.7925,14500,
19.795,14492,
19.7975,14495,
19.8,14499,
19.8025,14490,
19.805,14492,
19.8075,14492,
19.81,14489,
19.8125,14492,
19.815,14486,
19.8175,14493,
19.82,14479,
19.8225,14479,
19.825,14489,
19.8275,14486,
19.83,14488,
19.8325,14484,
19.835,14480,
19.8375,14477,
19.84,14487,
19.8425,14482,
19.845,14482,
19.8475,14488,
19.85,14482,
19.8525,14482,
19.855,14488,
19.8575,14482,
19.86,14474,
19.8625,14477,
19.865,14474,
19.8675,14475,
19.87,14478,
19.8725,14479,
19.875,14476,
19.8775,14478,
19.88,14483,
19.8825,14472,
19.885,14481,
19.8875,14476,
19.89,14473,
19.8925,14470,
19.895,14482,
19.8975,14472,
19.9,14477,
19.9025,14470,
19.905,14475,
19.9075,14473,
19.91,14472,
19.9125,14471,
19.915,14474,
19.9175,14465,
19.92,14473,
19.9225,14467,
19.925,14472,
19.9275,14469,
19.93,14473,
19.9325,14480,
19.935,14470,
19.9375,14469,
19.94,14468,
19.9425,14462,
19.945,14470,
19.9475,14475,
19.95,14475,
19.9525,14472,
19.955,14475,
19.9575,14474,
19.96,14471,
19.9625,14470,
19.965,14465,
19.9675,14478,
19.97,14472,
19.9725,14467,
19.975,14473,
19.9775,14467,
19.98,14467,
19.9825,14470,
19.985,14470,
19.9875,14472,
19.99,14471,
19.9925,14472,
19.995,14473,
19.9975,14468,
20,14468,
20.0025,14465,
20.005,14465,
20.0075,14472,
20.01,14471,
20.0125,14470,
20.015,14465,
20.0175,14474,
20.02,14467,
20.0225,14469,
20.025,14467,
20.0275,14469,
20.03,14471,
20.0325,14463,
20.035,14466,
20.0375,14465,
20.04,14462,
20.0425,14471,
20.045,14464,
20.0475,14468,
20.05,14472,
20.0525,14467,
20.055,14459,
20.0575,14467,
20.06,14459,
20.0625,14464,
20.065,14466,
20.0675,14459,
20.07,14466,
20.0725,14471,
20.075,14465,
20.0775,14473,
20.08,14467,
20.0825,14462,
20.085,14461,
20.0875,14463,
20.09,14464,
20.0925,14462,
20.095,14467,
20.0975,14466,
20.1,14472,
20.1025,14471,
20.105,14463,
20.1075,14466,
20.11,14474,
20.1125,14469,
20.115,14465,
20.1175,14470,
20.12,14467,
20.1225,14474,
20.125,14471,
20.1275,14466,
20.13,14463,
20.1325,14476,
20.135,14461,
20.1375,14466,
20.14,14476,
20.1425,14473,
20.145,14482,
20.1475,14475,
20.15,14474,
20.1525,14470,
20.155,14475,
20.1575,14467,
20.16,14467,
20.1625,14475,
20.165,14472,
20.1675,14472,
20.17,14465,
20.1725,14478,
20.175,14470,
20.1775,14480,
20.18,14467,
20.1825,14481,
20.185,14469,
20.1875,14471,
20.19,14478,
20.1925,14474,
20.195,14481,
20.1975,14474,
20.2,14477,
20.2025,14482,
20.205,14477,
20.2075,14474,
20.21,14480,
20.2125,14478,
20.215,14479,
20.2175,14471,
20.22,14480,
20.2225,14476,
20.225,14482,
20.2275,14480,
20.23,14485,
20.2325,14473,
20.235,14484,
20.2375,14483,
20.24,14488,
20.2425,14485,
20.245,14485,
20.2475,14488,
20.25,14478,
20.2525,14489,
20.255,14487,
20.2575,14482,
20.26,14484,
20.2625,14487,
20.265,14483,
20.2675,14492,
20.27,14492,
20.2725,14485,
20.275,14484,
20.2775,14494,
20.28,14493,
20.2825,14481,
20.285,14485,
20.2875,14484,
20.29,14492,
20.2925,14483,
20.295,14485,
20.2975,14504,
20.3,14487,
20.3025,14490,
20.305,14494,
20.3075,14490,
20.31,14495,
20.3125,14492,
20.315,14500,
20.3175,14494,
20.32,14492,
20.3225,14495,
20.325,14498,
20.3275,14501,
20.33,14494,
20.3325,14487,
20.335,14499,
20.3375,14492,
20.34,14483,
20.3425,14488,
20.345,14487,
20.3475,14489,
20.35,14483,
20.3525,14487,
20.355,14483,
20.3575,14482,
20.36,14480,
20.3625,14488,
20.365,14480,
20.3675,14473,
20.37,14474,
20.3725,14474,
20.375,14478,
20.3775,14476,
20.38,14472,
20.3825,14466,
20.385,14470,
20.3875,14464,
20.39,14459,
20.3925,14450,
20.395,14462,
20.3975,14462,
20.4,14461,
20.4025,14459,
20.405,14454,
20.4075,14452,
20.41,14456,
20.4125,14456,
20.415,14453,
20.4175,14452,
20.42,14449,
20.4225,14442,
20.425,14445,
20.4275,14448,
20.43,14442,
20.4325,14444,
20.435,14452,
20.4375,14447,
20.44,14442,
20.4425,14439,
20.445,14443,
20.4475,14439,
20.45,14439,
20.4525,14432,
20.455,14432,
20.4575,14436,
20.46,14434,
20.4625,14426,
20.465,14435,
20.4675,14427,
20.47,14430,
20.4725,14421,
20.475,14423,
20.4775,14426,
20.48,14428,
20.4825,14427,
20.485,14432,
20.4875,14423,
20.49,14421,
20.4925,14425,
20.495,14417,
20.4975,14419,
20.5,14419,
20.5025,14419,
20.505,14421,
20.5075,14421,
20.51,14415,
20.5125,14417,
20.515,14418,
20.5175,14416,
20.52,14415,
20.5225,14412,
20.525,14418,
20.5275,14417,
20.53,14410,
20.5325,14412,
20.535,14417,
20.5375,14419,
20.54,14406,
20.5425,14409,
20.545,14408,
20.5475,14417,
20.55,14418,
20.5525,14409,
20.555,14409,
20.5575,14413,
20.56,14409,
20.5625,14414,
20.565,14410,
20.5675,14401,
20.57,14416,
20.5725,14413,
20.575,14412,
20.5775,14404,
20.58,14407,
20.5825,14411,
20.585,14405,
20.5875,14413,
20.59,14408,
20.5925,14406,
20.595,14410,
20.5975,14403,
20.6,14403,
20.6025,14405,
20.605,14405,
20.6075,14411,
20.61,14406,
20.6125,14403,
20.615,14409,
20.6175,14418,
20.62,14405,
20.6225,14406,
20.625,14401,
20.6275,14409,
20.63,14399,
20.6325,14398,
20.635,14399,
20.6375,14406,
20.64,14409,
20.6425,14402,
20.645,14398,
20.6475,14404,
20.65,14400,
20.6525,14398,
20.655,14415,
20.6575,14398,
20.66,14403,
20.6625,14404,
20.665,14403,
20.6675,14401,
20.67,14405,
20.6725,14396,
20.675,14399,
20.6775,14404,
20.68,14400,
20.6825,14398,
20.685,14396,
20.6875,14395,
20.69,14394,
20.6925,14400,
20.695,14397,
20.6975,14410,
20.7,14399,
20.7025,14397,
20.705,14395,
20.7075,14393,
20.71,14393,
20.7125,14396,
20.715,14394,
20.7175,14402,
20.72,14401,
20.7225,14403,
20.725,14391,
20.7275,14393,
20.73,14397,
20.7325,14408,
20.735,14397,
20.7375,14404,
20.74,14403,
20.7425,14400,
20.745,14401,
20.7475,14401,
20.75,14394,
20.7525,14392,
20.755,14401,
20.7575,14408,
20.76,14397,
20.7625,14398,
20.765,14398,
20.7675,14396,
20.77,14400,
20.7725,14404,
20.775,14402,
20.7775,14397,
20.78,14395,
20.7825,14405,
20.785,14402,
20.7875,14399,
20.79,14406,
20.7925,14402,
20.795,14394,
20.7975,14396,
20.8,14402,
20.8025,14401,
20.805,14399,
20.8075,14399,
20.81,14409,
20.8125,14401,
20.815,14403,
20.8175,14400,
20.82,14410,
20.8225,14404,
20.825,14412,
20.8275,14405,
20.83,14402,
20.8325,14396,
20.835,14407,
20.8375,14401,
20.84,14408,
20.8425,14405,
20.845,14407,
20.8475,14414,
20.85,14405,
20.8525,14400,
20.855,14410,
20.8575,14411,
20.86,14412,
20.8625,14410,
20.865,14407,
20.8675,14418,
20.87,14414,
20.8725,14414,
20.875,14415,
20.8775,14407,
20.88,14411,
20.8825,14414,
20.885,14418,
20.8875,14409,
20.89,14417,
20.8925,14414,
20.895,14409,
20.8975,14407,
20.9,14410,
20.9025,14412,
20.905,14414,
20.9075,14413,
20.91,14420,
20.9125,14422,
20.915,14414,
20.9175,14412,
20.92,14416,
20.9225,14420,
20.925,14415,
20.9275,14422,
20.93,14415,
20.9325,14417,
20.935,14413,
20.9375,14416,
20.94,14412,
20.9425,14410,
20.945,14416,
20.9475,14415,
20.95,14415,
20.9525,14418,
20.955,14409,
20.9575,14408,
20.96,14401,
20.9625,14399,
20.965,14401,
20.9675,14406,
20.97,14400,
20.9725,14398,
20.975,14396,
20.9775,14397,
20.98,14389,
20.9825,14393,
20.985,14388,
20.9875,14394,
20.99,14388,
20.9925,14386,
20.995,14383,
20.9975,14381,
21,14383,
21.0025,14377,
21.005,14373,
21.0075,14377,
21.01,14370,
21.0125,14369,
21.015,14368,
21.0175,14370,
21.02,14366,
21.0225,14368,
21.025,14362,
21.0275,14358,
21.03,14361,
21.0325,14366,
21.035,14359,
21.0375,14370,
21.04,14351,
21.0425,14350,
21.045,14354,
21.0475,14345,
21.05,14348,
21.0525,14347,
21.055,14353,
21.0575,14342,
21.06,14338,
21.0625,14346,
21.065,14341,
21.0675,14341,
21.07,14338,
21.0725,14337,
21.075,14344,
21.0775,14333,
21.08,14339,
21.0825,14335,
21.085,14334,
21.0875,14335,
21.09,14333,
21.0925,14326,
21.095,14324,
21.0975,14331,
21.1,14329,
21.1025,14330,
21.105,14332,
21.1075,14322,
21.11,14323,
21.1125,14325,
21.115,14328,
21.1175,14320,
21.12,14326,
21.1225,14324,
21.125,14323,
21.1275,14312,
21.13,14321,
21.1325,14313,
21.135,14322,
21.1375,14316,
21.14,14314,
21.1425,14312,
21.145,14316,
21.1475,14311,
21.15,14316,
21.1525,14311,
21.155,14313,
21.1575,14306,
21.16,14308,
21.1625,14307,
21.165,14316,
21.1675,14308,
21.17,14304,
21.1725,14302,
21.175,14309,
21.1775,14311,
21.18,14304,
21.1825,14302,
21.185,14301,
21.1875,14299,
21.19,14304,
21.1925,14302,
21.195,14313,
21.1975,14302,
21.2,14302,
21.2025,14295,
21.205,14300,
21.2075,14314,
21.21,14304,
21.2125,14306,
21.215,14297,
21.2175,14293,
21.22,14304,
21.2225,14307,
21.225,14297,
21.2275,14297,
21.23,14298,
21.2325,14297,
21.235,14302,
21.2375,14298,
21.24,14293,
21.2425,14301,
21.245,14294,
21.2475,14293,
21.25,14299,
21.2525,14300,
21.255,14292,
21.2575,14298,
21.26,14294,
21.2625,14294,
21.265,14297,
21.2675,14298,
21.27,14298,
21.2725,14298,
21.275,14291,
21.2775,14299,
21.28,14298,
21.2825,14290,
21.285,14293,
21.2875,14288,
21.29,14287,
21.2925,14299,
21.295,14294,
21.2975,14292,
21.3,14289,
21.3025,14294,
21.305,14294,
21.3075,14292,
21.31,14289,
21.3125,14288,
21.315,14289,
21.3175,14294,
21.32,14291,
21.3225,14286,
21.325,14293,
21.3275,14292,
21.33,14288,
21.3325,14289,
21.335,14297,
21.3375,14289,
21.34,14290,
21.3425,14288,
21.345,14287,
21.3475,14293,
21.35,14289,
21.3525,14291,
21.355,14295,
21.3575,14284,
21.36,14287,
21.3625,14291,
21.365,14294,
21.3675,14290,
21.37,14297,
21.3725,14292,
21.375,14291,
21.3775,14287,
21.38,14291,
21.3825,14280,
21.385,14298,
21.3875,14295,
21.39,14290,
21.3925,14294,
21.395,14287,
21.3975,14293,
21.4,14291,
21.4025,14295,
21.405,14284,
21.4075,14295,
21.41,14294,
21.4125,14291,
21.415,14299,
21.4175,14297,
21.42,14294,
21.4225,14302,
21.425,14300,
21.4275,14293,
21.43,14293,
21.4325,14293,
21.435,14293,
21.4375,14294,
21.44,14298,
21.4425,14301,
21.445,14303,
21.4475,14302,
21.45,14295,
21.4525,14299,
21.455,14293,
21.4575,14299,
21.46,14305,
21.4625,14301,
21.465,14298,
21.4675,14303,
21.47,14311,
21.4725,14299,
21.475,14307,
21.4775,14305,
21.48,14299,
21.4825,14303,
21.485,14307,
21.4875,14309,
21.49,14307,
21.4925,14304,
21.495,14310,
21.4975,14302,
21.5,14301,
21.5025,14304,
21.505,14325,
21.5075,14311,
21.51,14304,
21.5125,14312,
21.515,14309,
21.5175,14307,
21.52,14307,
21.5225,14311,
21.525,14306,
21.5275,14306,
21.53,14307,
21.5325,14304,
21.535,14317,
21.5375,14315,
21.54,14311,
21.5425,14316,
21.545,14303,
21.5475,14311,
21.55,14317,
21.5525,14311,
21.555,14314,
21.5575,14312,
21.56,14314,
21.5625,14321,
21.565,14314,
21.5675,14312,
21.57,14312,
21.5725,14307,
21.575,14312,
21.5775,14305,
21.58,14305,
21.5825,14309,
21.585,14307,
21.5875,14304,
21.59,14307,
21.5925,14307,
21.595,14300,
21.5975,14299,
21.6,14301,
21.6025,14292,
21.605,14294,
21.6075,14290,
21.61,14293,
21.6125,14288,
21.615,14286,
21.6175,14291,
21.62,14277,
21.6225,14279,
21.625,14286,
21.6275,14276,
21.63,14267,
21.6325,14270,
21.635,14271,
21.6375,14276,
21.64,14273,
21.6425,14266,
21.645,14259,
21.6475,14258,
21.65,14257,
21.6525,14259,
21.655,14255,
21.6575,14250,
21.66,14256,
21.6625,14250,
21.665,14257,
21.6675,14247,
21.67,14242,
21.6725,14243,
21.675,14249,
21.6775,14244,
21.68,14241,
21.6825,14239,
21.685,14234,
21.6875,14232,
21.69,14235,
21.6925,14234,
21.695,14227,
21.6975,14230,
21.7,14232,
21.7025,14227,
21.705,14230,
21.7075,14222,
21.71,14224,
21.7125,14224,
21.715,14223,
21.7175,14221,
21.72,14216,
21.7225,14219,
21.725,14212,
21.7275,14208,
21.73,14212,
21.7325,14212,
21.735,14207,
21.7375,14207,
21.74,14206,
21.7425,14209,
21.745,14209,
21.7475,14195,
21.75,14207,
21.7525,14199,
21.755,14203,
21.7575,14194,
21.76,14208,
21.7625,14198,
21.765,14187,
21.7675,14203,
21.77,14195,
21.7725,14196,
21.775,14192,
21.7775,14197,
21.78,14201,
21.7825,14191,
21.785,14187,
21.7875,14189,
21.79,14199,
21.7925,14195,
21.795,14189,
21.7975,14193,
